timestep,ALIF0,ALIF1,ALIF2,ALIF3,ALIF4
0,0.0,0.0,0.0,0.0,0.0
1,0.0,0.0,0.0,0.0,0.0
2,0.0,0.0,0.0,0.0,0.0
3,0.0,0.0,0.0,0.0,0.0
4,0.0,0.0,0.0,0.0,0.0
5,0.0,0.0,0.0,0.0,0.0
6,0.0,0.0,0.0,0.0,0.0
7,0.0,0.0,0.0,0.0,0.0
8,0.0,0.0,0.0,0.0,0.0
9,0.0,0.0,0.0,0.0,0.0
10,0.0,0.0,0.0,0.0,0.0
11,0.0,0.0,0.0,0.0,0.0
12,0.0,0.0,0.0,0.0,0.0
13,0.0,0.0,0.0,0.0,0.0
14,0.0,0.0,0.0,0.0,0.0
15,0.0,0.0,0.0,0.0,0.0
16,0.0,0.0,0.0,0.0,0.0
17,0.0,0.0,0.0,0.0,0.0
18,0.0,0.0,0.0,0.0,0.0
19,0.0,0.0,0.0,0.0,0.0
20,0.0,0.0,0.0,0.0,0.0
21,0.0,0.0,0.0,0.0,0.0
22,0.0,0.0,0.0,0.0,0.0
23,0.0,0.0,0.0,0.0,0.0
24,0.0,0.0,0.0,0.0,0.0
25,0.0,0.0,0.0,0.0,0.0
26,0.0,0.0,0.0,0.0,0.0
27,0.0,0.0,0.0,0.0,0.0
28,0.0,0.0,0.0,0.0,0.0
29,0.0,0.0,0.0,0.0,0.0
30,0.0,0.0,0.0,0.0,0.0
31,0.0,0.0,0.0,0.0,0.0
32,0.0,0.0,0.0,0.0,0.0
33,0.0,0.0,0.0,0.0,0.0
34,0.0,0.0,0.0,0.0,0.0
35,0.0,0.0,0.0,0.0,0.0
36,0.0,0.0,0.0,0.0,0.0
37,0.0,0.0,0.0,0.0,0.0
38,0.116703264,0.0,0.0,0.0,0.0
39,0.11658662,0.0,0.0,0.0,0.0
40,0.11647009,0.0,0.0,0.0,0.0
41,0.116353676,0.0,0.0,0.0,0.0
42,0.11623738,0.0,0.0,0.0,0.0
43,0.1161212,0.0,0.0,0.0,0.0
44,0.11600514,0.0,0.0,0.0,0.0
45,0.11588919,0.0,0.0,0.0,0.0
46,0.11577336,0.0,0.0,0.0,0.0
47,0.11565764,0.0,0.0,0.0,0.0
48,0.11554204,0.0,0.0,0.0,0.0
49,0.115426555,0.0,0.0,0.0,0.0
50,0.11531118,0.0,0.0,0.0,0.0
51,0.2318992,0.0,0.0,0.0,0.0
52,0.23166741,0.0,0.0,0.0,0.0
53,0.23143587,0.0,0.0,0.0,0.0
54,0.23120454,0.0,0.0,0.0,0.0
55,0.23097345,0.0,0.0,0.0,0.0
56,0.23074259,0.0,0.0,0.0,0.0
57,0.23051196,0.0,0.0,0.0,0.0
58,0.23028156,0.0,0.0,0.0,0.0
59,0.2300514,0.0,0.0,0.0,0.0
60,0.22982146,0.0,0.0,0.0,0.0
61,0.22959174,0.0,0.0,0.0,0.0
62,0.22936226,0.0,0.0,0.0,0.0
63,0.22913301,0.0,0.0,0.0,0.0
64,0.228904,0.0,0.0,0.0,0.0
65,0.2286752,0.0,0.0,0.0,0.0
66,0.22844663,0.0,0.0,0.0,0.0
67,0.2282183,0.0,0.0,0.0,0.0
68,0.2279902,0.0,0.0,0.0,0.0
69,0.22776231,0.0,0.0,0.0,0.0
70,0.22753467,0.0,0.0,0.0,0.0
71,0.22730725,0.0,0.0,0.0,0.0
72,0.22708005,0.0,0.0,0.0,0.0
73,0.22685307,0.0,0.0,0.0,0.0
74,0.22662634,0.0,0.0,0.0,0.0
75,0.22639982,0.0,0.0,0.0,0.0
76,0.22617353,0.0,0.0,0.0,0.0
77,0.22594747,0.0,0.0,0.0,0.0
78,0.22572163,0.0,0.0,0.0,0.0
79,0.22549601,0.0,0.0,0.0,0.0
80,0.22527063,0.0,0.0,0.0,0.0
81,0.22504547,0.0,0.0,0.0,0.0
82,0.22482054,0.0,0.0,0.0,0.0
83,0.22459583,0.0,0.0,0.0,0.0
84,0.22437134,0.0,0.0,0.0,0.0
85,0.22414708,0.0,0.0,0.0,0.0
86,0.22392304,0.0,0.0,0.0,0.0
87,0.22369923,0.0,0.0,0.0,0.0
88,0.22347564,0.0,0.0,0.0,0.0
89,0.22325227,0.0,0.0,0.0,0.0
90,0.22302912,0.0,0.0,0.0,0.0
91,0.2228062,0.0,0.0,0.0,0.0
92,0.2225835,0.0,0.0,0.0,0.0
93,0.22236103,0.0,0.0,0.0,0.0
94,0.22213878,0.0,0.0,0.0,0.0
95,0.22191675,0.0,0.0,0.0,0.0
96,0.22169495,0.0,0.0,0.0,0.0
97,0.22147337,0.0,0.0,0.0,0.0
98,0.221252,0.0,0.0,0.0,0.0
99,0.22103085,0.0,0.0,0.0,0.0
100,0.22080992,0.0,0.0,0.0,0.0
101,0.22058922,0.0,0.0,0.0,0.0
102,0.22036874,0.0,0.0,0.0,0.0
103,0.22014849,0.0,0.0,0.0,0.0
104,0.21992844,0.0,0.0,0.0,0.0
105,0.21970862,0.0,0.0,0.0,0.0
106,0.21948902,0.0,0.0,0.0,0.0
107,0.21926965,0.0,0.0,0.0,0.0
108,0.21905048,0.0,0.0,0.0,0.0
109,0.21883154,0.0,0.0,0.0,0.0
110,0.21861282,0.0,0.0,0.0,0.0
111,0.21839431,0.0,0.0,0.0,0.0
112,0.21817602,0.0,0.0,0.0,0.0
113,0.21795796,0.0,0.0,0.0,0.0
114,0.2177401,0.0,0.0,0.0,0.0
115,0.21752247,0.0,0.0,0.0,0.0
116,0.21730505,0.0,0.0,0.0,0.0
117,0.21708785,0.0,0.0,0.0,0.0
118,0.21687087,0.0,0.0,0.0,0.0
119,0.2166541,0.0,0.0,0.0,0.0
120,0.21643756,0.0,0.0,0.0,0.0
121,0.21622123,0.0,0.0,0.0,0.0
122,0.21600512,0.0,0.0,0.0,0.0
123,0.21578921,0.0,0.116703264,0.0,0.0
124,0.21557353,0.0,0.11658662,0.0,0.0
125,0.21535806,0.0,0.11647009,0.0,0.0
126,0.21514282,0.0,0.116353676,0.0,0.0
127,0.21492778,0.0,0.11623738,0.0,0.0
128,0.21471296,0.0,0.1161212,0.0,0.0
129,0.3312016,0.0,0.11600514,0.0,0.0
130,0.33087057,0.0,0.11588919,0.0,0.0
131,0.33053985,0.0,0.11577336,0.0,0.0
132,0.33020946,0.0,0.11565764,0.0,0.0
133,0.3298794,0.0,0.11554204,0.0,0.0
134,0.3295497,0.0,0.115426555,0.0,0.0
135,0.32922032,0.0,0.11531118,0.0,0.0
136,0.32889128,0.0,0.11519593,0.0,0.0
137,0.32856256,0.0,0.11508079,0.0,0.0
138,0.32823417,0.0,0.11496577,0.0,0.0
139,0.3279061,0.0,0.11485086,0.0,0.0
140,0.32757837,0.0,0.114736065,0.0,0.0
141,0.32725096,0.0,0.114621386,0.0,0.0
142,0.32692388,0.0,0.11450682,0.0,0.0
143,0.32659712,0.0,0.11439237,0.0,0.0
144,0.3262707,0.0,0.11427803,0.0,0.0
145,0.3259446,0.0,0.11416381,0.0,0.0
146,0.3256188,0.0,0.1140497,0.0,0.0
147,0.32529333,0.0,0.11393571,0.0,0.0
148,0.3249682,0.0,0.11382183,0.0,0.0
149,0.32464337,0.0,0.113708064,0.0,0.0
150,0.3243189,0.0,0.11359441,0.0,0.0
151,0.32399473,0.0,0.11348087,0.0,0.0
152,0.3236709,0.0,0.113367446,0.0,0.0
153,0.3233474,0.0,0.11325414,0.0,0.0
154,0.3230242,0.0,0.11314094,0.0,0.0
155,0.32270133,0.0,0.113027856,0.0,0.0
156,0.32237878,0.0,0.11291488,0.0,0.0
157,0.32205656,0.0,0.11280202,0.0,0.0
158,0.32173467,0.0,0.11268927,0.0,0.0
159,0.3214131,0.0,0.11257664,0.0,0.0
160,0.32109183,0.0,0.11246412,0.0,0.0
161,0.3207709,0.0,0.112351716,0.0,0.0
162,0.32045028,0.0,0.11223942,0.0,0.0
163,0.32013,0.0,0.11212724,0.0,0.0
164,0.31981,0.0,0.112015165,0.0,0.0
165,0.31949034,0.0,0.111903206,0.0,0.0
166,0.319171,0.0,0.11179136,0.0,0.0
167,0.318852,0.0,0.11167962,0.0,0.0
168,0.3185333,0.0,0.111568,0.0,0.0
169,0.31821492,0.0,0.11145648,0.0,0.0
170,0.31789687,0.0,0.11134508,0.0,0.0
171,0.31757912,0.0,0.11123379,0.0,0.0
172,0.3172617,0.0,0.111122616,0.0,0.0
173,0.3169446,0.0,0.11101155,0.0,0.0
174,0.3166278,0.0,0.110900596,0.0,0.0
175,0.31631133,0.0,0.110789746,0.0,0.0
176,0.3159952,0.0,0.11067901,0.0,0.0
177,0.31567934,0.0,0.11056838,0.0,0.0
178,0.31536382,0.0,0.11045787,0.0,0.0
179,0.3150486,0.0,0.110347465,0.0,0.0
180,0.3147337,0.0,0.110237174,0.0,0.0
181,0.31441912,0.0,0.11012699,0.0,0.0
182,0.31410486,0.0,0.11001691,0.0,0.0
183,0.31379092,0.0,0.10990695,0.0,0.0
184,0.31347728,0.0,0.1097971,0.0,0.0
185,0.31316397,0.0,0.10968735,0.0,0.0
186,0.31285095,0.0,0.109577715,0.0,0.0
187,0.31253827,0.0,0.10946819,0.0,0.0
188,0.31222588,0.0,0.10935878,0.0,0.0
189,0.31191382,0.0,0.10924947,0.0,0.0
190,0.31160206,0.0,0.10914028,0.0,0.0
191,0.3112906,0.0,0.10903119,0.0,0.0
192,0.31097946,0.0,0.10892221,0.0,0.0
193,0.31066862,0.0,0.108813345,0.0,0.0
194,0.3103581,0.0,0.10870458,0.0,0.0
195,0.3100479,0.0,0.10859593,0.0,0.0
196,0.309738,0.0,0.10848739,0.0,0.0
197,0.30942842,0.0,0.108378954,0.0,0.0
198,0.30911914,0.0,0.10827063,0.0,0.0
199,0.30881017,0.0,0.10816241,0.0,0.0
200,0.3085015,0.0,0.1080543,0.0,0.0
201,0.30819315,0.0,0.1079463,0.0,0.0
202,0.3078851,0.0,0.10783841,0.0,0.0
203,0.30757737,0.0,0.10773062,0.0,0.0
204,0.30726993,0.0,0.107622944,0.0,0.0
205,0.30696282,0.0,0.10751537,0.0,0.0
206,0.306656,0.0,0.10740791,0.0,0.0
207,0.3063495,0.0,0.10730056,0.0,0.0
208,0.3060433,0.0,0.107193306,0.0,0.0
209,0.3057374,0.0,0.10708617,0.0,0.0
210,0.3054318,0.0,0.10697913,0.0,0.116703264
211,0.30512652,0.0,0.10687221,0.0,0.11658662
212,0.30482155,0.0,0.10676539,0.0,0.11647009
213,0.30451688,0.0,0.106658675,0.0,0.116353676
214,0.3042125,0.0,0.10655207,0.0,0.11623738
215,0.30390844,0.0,0.10644557,0.0,0.1161212
216,0.3036047,0.0,0.10633918,0.0,0.11600514
217,0.30330124,0.0,0.10623289,0.0,0.11588919
218,0.3029981,0.0,0.10612671,0.0,0.11577336
219,0.30269524,0.0,0.10602064,0.0,0.11565764
220,0.3023927,0.0,0.10591467,0.0,0.11554204
221,0.30209044,0.0,0.1058088,0.0,0.115426555
222,0.30178848,0.0,0.10570305,0.0,0.11531118
223,0.30148685,0.0,0.1055974,0.0,0.11519593
224,0.30118552,0.0,0.105491854,0.0,0.11508079
225,0.3008845,0.0,0.10538641,0.0,0.11496577
226,0.30058375,0.0,0.10528108,0.0,0.11485086
227,0.3002833,0.0,0.105175845,0.0,0.114736065
228,0.29998317,0.0,0.10507072,0.0,0.114621386
229,0.29968333,0.0,0.1049657,0.0,0.23121008
230,0.2993838,0.0,0.10486079,0.0,0.23097898
231,0.29908454,0.0,0.10475598,0.0,0.23074812
232,0.2987856,0.0,0.10465128,0.0,0.23051748
233,0.29848695,0.0,0.10454668,0.0,0.23028708
234,0.2981886,0.0,0.10444219,0.0,0.2300569
235,0.29789054,0.0,0.1043378,0.0,0.22982696
236,0.2975928,0.0,0.10423351,0.0,0.22959724
237,0.29729533,0.0,0.10412933,0.0,0.22936776
238,0.29699817,0.0,0.10402525,0.0,0.22913851
239,0.2967013,0.0,0.10392128,0.0,0.22890948
240,0.29640475,0.0,0.10381741,0.0,0.22868069
241,0.29610848,0.0,0.10371365,0.0,0.22845212
242,0.29581252,0.0,0.10360999,0.0,0.22822377
243,0.29551685,0.0,0.10350643,0.0,0.22799566
244,0.29522148,0.0,0.10340297,0.0,0.22776778
245,0.2949264,0.0,0.10329962,0.0,0.22754012
246,0.29463163,0.0,0.10319637,0.0,0.2273127
247,0.29433715,0.0,0.10309322,0.0,0.2270855
248,0.29404297,0.0,0.10299018,0.0,0.22685853
249,0.29374906,0.0,0.10288724,0.0,0.22663178
250,0.29345545,0.0,0.1027844,0.0,0.22640525
251,0.29316214,0.0,0.10268167,0.0,0.22617896
252,0.29286912,0.0,0.102579035,0.0,0.2259529
253,0.2925764,0.0,0.10247651,0.0,0.34243032
254,0.29228398,0.0,0.102374084,0.0,0.34208807
255,0.29199183,0.0,0.10227176,0.0,0.34174615
256,0.29169998,0.0,0.102169536,0.0,0.3414046
257,0.29140842,0.0,0.10206742,0.0,0.34106335
258,0.29111716,0.0,0.1019654,0.0,0.34072244
259,0.2908262,0.0,0.10186348,0.0,0.3403819
260,0.2905355,0.0,0.10176167,0.0,0.34004167
261,0.29024512,0.0,0.10165995,0.0,0.3397018
262,0.28995502,0.0,0.10155834,0.0,0.33936226
263,0.2896652,0.0,0.101456836,0.0,0.33902305
264,0.28937566,0.0,0.101355426,0.0,0.3386842
265,0.28908643,0.0,0.10125412,0.0,0.33834568
266,0.2887975,0.0,0.10115292,0.0,0.3380075
267,0.28850883,0.0,0.101051815,0.0,0.33766967
268,0.28822047,0.0,0.100950815,0.0,0.33733216
269,0.2879324,0.0,0.10084991,0.0,0.336995
270,0.2876446,0.0,0.10074911,0.0,0.33665818
271,0.2873571,0.0,0.10064841,0.0,0.33632168
272,0.2870699,0.0,0.10054781,0.0,0.3359855
273,0.28678295,0.0,0.10044731,0.0,0.3356497
274,0.2864963,0.0,0.100346915,0.0,0.3353142
275,0.28620994,0.0,0.100246616,0.0,0.33497906
276,0.28592387,0.0,0.10014642,0.0,0.33464423
277,0.2856381,0.0,0.10004632,0.0,0.33430976
278,0.2853526,0.0,0.09994633,0.0,0.3339756
279,0.28506738,0.0,0.09984643,0.0,0.45034507
280,0.28478244,0.0,0.09974663,0.0,0.44989493
281,0.2844978,0.0,0.09964693,0.0,0.44944525
282,0.28421345,0.0,0.099547334,0.0,0.44899604
283,0.28392938,0.0,0.09944784,0.116703264,0.44854727
284,0.2836456,0.0,0.09934844,0.11658662,0.44809896
285,0.2833621,0.0,0.09924914,0.11647009,0.4476511
286,0.28307888,0.0,0.09914994,0.116353676,0.44720367
287,0.28279594,0.0,0.09905084,0.11623738,0.4467567
288,0.2825133,0.0,0.09895184,0.1161212,0.44631016
289,0.2822309,0.0,0.09885293,0.11600514,0.44586408
290,0.28194883,0.0,0.09875413,0.11588919,0.44541845
291,0.28166702,0.0,0.098655425,0.11577336,0.44497326
292,0.28138548,0.0,0.09855682,0.11565764,0.4445285
293,0.28110424,0.0,0.098458305,0.11554204,0.44408417
294,0.28082326,0.0,0.0983599,0.115426555,0.4436403
295,0.28054258,0.0,0.09826159,0.11531118,0.44319686
296,0.28026217,0.0,0.098163374,0.11519593,0.44275388
297,0.27998206,0.0,0.09806526,0.11508079,0.44231135
298,0.27970222,0.0,0.09796724,0.11496577,0.44186926
299,0.27942264,0.0,0.097869314,0.11485086,0.44142762
300,0.27914336,0.0,0.097771496,0.114736065,0.4409864
301,0.27886435,0.0,0.097673774,0.114621386,0.44054562
302,0.2785856,0.0,0.09757615,0.11450682,0.4401053
303,0.27830717,0.0,0.09747862,0.11439237,0.4396654
304,0.278029,0.0,0.09738119,0.11427803,0.43922597
305,0.2777511,0.0,0.097283855,0.11416381,0.43878695
306,0.27747348,0.0,0.09718662,0.1140497,0.43834838
307,0.27719614,0.0,0.09708948,0.11393571,0.43791026
308,0.27691907,0.0,0.09699243,0.11382183,0.43747255
309,0.2766423,0.0,0.096895486,0.113708064,0.4370353
310,0.2763658,0.0,0.096798636,0.11359441,0.43659848
311,0.27608955,0.0,0.09670188,0.11348087,0.43616208
312,0.2758136,0.0,0.09660523,0.113367446,0.43572614
313,0.27553794,0.0,0.09650867,0.11325414,0.43529063
314,0.27526253,0.0,0.096412204,0.11314094,0.43485555
315,0.2749874,0.0,0.09631584,0.113027856,0.4344209
316,0.27471253,0.0,0.09621957,0.11291488,0.4339867
317,0.27443796,0.0,0.0961234,0.11280202,0.43355292
318,0.27416366,0.0,0.09602732,0.11268927,0.4331196
319,0.27388963,0.0,0.095931344,0.11257664,0.4326867
320,0.27361587,0.0,0.09583546,0.11246412,0.43225423
321,0.27334237,0.0,0.09573967,0.112351716,0.43182218
322,0.27306917,0.0,0.095643975,0.11223942,0.43139058
323,0.27279624,0.0,0.09554838,0.11212724,0.4309594
324,0.27252358,0.0,0.095452875,0.112015165,0.43052864
325,0.2722512,0.0,0.09535747,0.111903206,0.43009833
326,0.27197906,0.0,0.09526216,0.11179136,0.42966843
327,0.2717072,0.0,0.095166944,0.11167962,0.42923898
328,0.27143562,0.0,0.09507182,0.111568,0.42880994
329,0.27116433,0.0,0.0949768,0.11145648,0.42838135
330,0.2708933,0.0,0.09488187,0.11134508,0.42795318
331,0.27062255,0.0,0.2114903,0.11123379,0.42752543
332,0.27035207,0.0,0.21127892,0.111122616,0.42709813
333,0.27008185,0.0,0.21106774,0.11101155,0.42667124
334,0.2698119,0.0,0.21085677,0.110900596,0.42624477
335,0.26954222,0.0,0.21064602,0.110789746,0.42581874
336,0.2692728,0.0,0.21043548,0.11067901,0.42539313
337,0.26900366,0.0,0.21022515,0.11056838,0.42496794
338,0.26873478,0.0,0.21001503,0.11045787,0.42454317
339,0.26846617,0.0,0.20980512,0.110347465,0.42411885
340,0.26819783,0.0,0.20959541,0.110237174,0.42369494
341,0.26792976,0.0,0.20938592,0.11012699,0.42327145
342,0.26766196,0.0,0.20917663,0.11001691,0.42284837
343,0.26739442,0.0,0.20896755,0.10990695,0.42242575
344,0.26712716,0.0,0.20875868,0.1097971,0.42200354
345,0.26686016,0.0,0.20855002,0.10968735,0.42158175
346,0.26659343,0.0,0.20834157,0.109577715,0.42116037
347,0.26632696,0.0,0.20813332,0.10946819,0.4207394
348,0.26606077,0.0,0.32462856,0.10935878,0.42031887
349,0.26579484,0.0,0.3243041,0.10924947,0.41989875
350,0.2655292,0.0,0.32397994,0.10914028,0.41947904
351,0.2652638,0.0,0.3236561,0.10903119,0.41905978
352,0.26499867,0.0,0.3233326,0.10892221,0.41864094
353,0.2647338,0.0,0.32300943,0.108813345,0.41822252
354,0.26446918,0.0,0.32268658,0.10870458,0.4178045
355,0.26420483,0.0,0.43906733,0.10859593,0.41738692
356,0.26394075,0.0,0.4386285,0.10848739,0.41696975
357,0.26367694,0.0,0.43819007,0.108378954,0.416553
358,0.2634134,0.0,0.4377521,0.10827063,0.41613665
359,0.26315013,0.0,0.43731457,0.10816241,0.41572073
360,0.2628871,0.0,0.43687746,0.1080543,0.41530523
361,0.26262432,0.0,0.4364408,0.1079463,0.4148901
362,0.26236182,0.0,0.55270785,0.10783841,0.4144754
363,0.2620996,0.0,0.55215544,0.10773062,0.41406113
364,0.26183763,0.0,0.55160356,0.107622944,0.41364726
365,0.2615759,0.0,0.5510522,0.10751537,0.41323382
366,0.26131445,0.0,0.5505014,0.10740791,0.4128208
367,0.26105326,0.0,0.5499512,0.10730056,0.41240817
368,0.26079234,0.0,0.6661048,0.107193306,0.41199598
369,0.2605317,0.0,0.665439,0.10708617,0.41158417
370,0.26027128,0.0,0.6647739,0.10697913,0.41117278
371,0.26001114,0.0,0.6641094,0.10687221,0.4107618
372,0.25975126,0.0,0.66344565,0.10676539,0.41035125
373,0.25949162,0.0,0.66278255,0.106658675,0.4099411
374,0.25923225,0.0,0.6621201,0.10655207,0.40953135
375,0.25897315,0.0,0.6614583,0.10644557,0.40912202
376,0.25871432,0.0,0.6607972,0.10633918,0.4087131
377,0.25845572,0.0,0.77684,0.10623289,0.4083046
378,0.2581974,0.0,0.7760635,0.10612671,0.4078965
379,0.25793934,0.0,0.7752878,0.10602064,0.4074888
380,0.25768152,0.0,0.7745129,0.10591467,0.4070815
381,0.25742397,0.0,0.77373874,0.1058088,0.40667462
382,0.25716668,0.0,0.7729654,0.10570305,0.40626815
383,0.25690964,0.0,0.7721928,0.1055974,0.4058621
384,0.25665286,0.0,0.77142096,0.105491854,0.40545642
385,0.25639632,0.0,0.8873532,0.10538641,0.40505117
386,0.25614005,0.0,0.88646626,0.10528108,0.4046463
387,0.25588405,0.0,0.88558024,0.105175845,0.40424186
388,0.2556283,0.0,0.8846951,0.10507072,0.40383783
389,0.2553728,0.0,0.8838109,0.1049657,0.4034342
390,0.25511754,0.0,0.8829275,0.10486079,0.40303096
391,0.25486255,0.0,0.882045,0.10475598,0.40262812
392,0.2546078,0.0,0.88116336,0.10465128,0.4022257
393,0.2543533,0.0,0.9969859,0.10454668,0.40182367
394,0.25409907,0.0,0.99598944,0.10444219,0.40142205
395,0.2538451,0.0,0.9949939,0.1043378,0.40102082
396,0.2535914,0.0,0.9939994,0.10423351,0.40062
397,0.25333792,0.0,0.99300593,0.10412933,0.4002196
398,0.25308472,0.0,0.9920134,0.10402525,0.39981955
399,0.25283176,0.0,0.9910219,0.10392128,0.39941993
400,0.25257906,0.0,1.1067322,0.10381741,0.3990207
401,0.2523266,0.0,1.1056261,0.10371365,0.3986219
402,0.2520744,0.0,1.104521,0.10360999,0.39822346
403,0.25182244,0.0,1.103417,0.10350643,0.39782542
404,0.25157073,0.0,1.1023141,0.10340297,0.3974278
405,0.2513193,0.0,1.1012124,0.10329962,0.39703056
406,0.2510681,0.0,1.1001117,0.10319637,0.3966337
407,0.25081715,0.0,1.0990121,0.10309322,0.39623728
408,0.25056645,0.0,1.0979136,0.10299018,0.39584124
409,0.25031602,0.0,1.2134073,0.10288724,0.3954456
410,0.25006583,0.0,1.2121944,0.1027844,0.39505035
411,0.2498159,0.0,1.2109828,0.10268167,0.3946555
412,0.2495662,0.0,1.2097725,0.102579035,0.39426103
413,0.24931675,0.0,1.2085633,0.10247651,0.39386696
414,0.24906756,0.0,1.2073554,0.102374084,0.39347327
415,0.36552188,0.0,1.2061486,0.10227176,0.39308
416,0.36515653,0.0,1.2049431,0.102169536,0.3926871
417,0.36479154,0.0,1.2037387,0.10206742,0.39229462
418,0.36442694,0.0,1.2025355,0.1019654,0.3919025
419,0.3640627,0.0,1.2013335,0.10186348,0.39151078
420,0.3636988,0.0,1.2001327,0.10176167,0.39111948
421,0.36333528,0.0,1.1989331,0.10165995,0.39072856
422,0.3629721,0.0,1.1977348,0.10155834,0.39033803
423,0.4793126,0.0,1.1965377,0.101456836,0.3899479
424,0.47883353,0.0,1.1953418,0.101355426,0.38955814
425,0.47835493,0.0,1.1941471,0.10125412,0.38916877
426,0.4778768,0.0,1.1929536,0.10115292,0.3887798
427,0.47739917,0.0,1.1917613,0.101051815,0.3883912
428,0.476922,0.0,1.1905701,0.100950815,0.388003
429,0.47644532,0.0,1.1893802,0.10084991,0.38761517
430,0.4759691,0.0,1.1881914,0.10074911,0.38722774
431,0.47549337,0.0,1.1870039,0.10064841,0.3868407
432,0.4750181,0.0,1.1858175,0.10054781,0.38645405
433,0.47454333,0.0,1.1846323,0.10044731,0.38606778
434,0.47406903,0.0,1.1834482,0.100346915,0.3856819
435,0.4735952,0.0,1.1822653,0.100246616,0.3852964
436,0.5898251,0.0,1.1810836,0.10014642,0.3849113
437,0.58923554,0.0,1.179903,0.10004632,0.38452658
438,0.5886466,0.0,1.1787237,0.09994633,0.38414225
439,0.58805823,0.0,1.1775455,0.09984643,0.3837583
440,0.5874705,0.0,1.1763686,0.09974663,0.38337475
441,0.5868833,0.0,1.1751928,0.09964693,0.38299155
442,0.58629674,0.0,1.1740183,0.099547334,0.38260874
443,0.5857107,0.0,1.1728448,0.09944784,0.38222632
444,0.58512527,0.0,1.1716725,0.09934844,0.38184428
445,0.5845404,0.0,1.1705014,0.09924914,0.38146263
446,0.5839562,0.0,1.1693314,0.09914994,0.38108137
447,0.7000758,0.0,1.1681627,0.09905084,0.38070047
448,0.69937605,0.0,1.1669952,0.09895184,0.38031995
449,0.698677,0.0,1.1658287,0.09885293,0.37993982
450,0.6979787,0.0,1.1646634,0.09875413,0.37956008
451,0.69728106,0.0,1.1634994,0.098655425,0.3791807
452,0.6965841,0.0,1.1623365,0.09855682,0.3788017
453,0.69588786,0.0,1.1611747,0.098458305,0.3784231
454,0.69519234,0.0,1.160014,0.0983599,0.37804484
455,0.69449747,0.0,1.1588546,0.09826159,0.37766698
456,0.6938033,0.0,1.1576964,0.098163374,0.3772895
457,0.80981314,0.0,1.1565392,0.09806526,0.3769124
458,0.8090037,0.0,1.1553832,0.09796724,0.37653565
459,0.8081951,0.0,1.1542284,0.097869314,0.3761593
460,0.8073873,0.0,1.1530747,0.097771496,0.37578332
461,0.8065803,0.0,1.1519222,0.097673774,0.37540773
462,0.8057741,0.0,1.1507709,0.09757615,0.3750325
463,0.8049687,0.0,1.1496207,0.09747862,0.37465766
464,0.9208674,0.0,1.1484716,0.09738119,0.3742832
465,0.91994697,0.0,1.1473237,0.097283855,0.3739091
466,0.91902745,0.0,1.1461769,0.09718662,0.37353536
467,0.9181089,0.0,1.1450313,0.09708948,0.373162
468,0.9171912,0.0,1.1438868,0.09699243,0.37278903
469,0.9162745,0.0,1.1427435,0.096895486,0.3724164
470,0.91535866,0.0,1.1416013,0.096798636,0.37204418
471,0.91444373,0.0,1.1404603,0.09670188,0.3716723
472,0.91352975,0.0,1.1393204,0.09660523,0.37130082
473,0.91261667,0.0,1.1381816,0.09650867,0.3709297
474,0.9117045,0.0,1.137044,0.096412204,0.48726222
475,0.91079324,0.0,1.1359074,0.09631584,0.4867752
476,0.9098829,0.0,1.1347721,0.09621957,0.48628867
477,0.90897346,0.0,1.1336379,0.0961234,0.48580262
478,0.9080649,0.0,1.1325048,0.09602732,0.48531705
479,0.9071573,0.0,1.1313729,0.095931344,0.48483196
480,0.9062506,0.0,1.1302421,0.09583546,0.6010506
481,0.9053448,0.0,1.1291124,0.09573967,0.60044986
482,0.90443987,0.0,1.1279838,0.095643975,0.5998497
483,0.90353584,0.0,1.1268563,0.09554838,0.59925014
484,0.9026328,0.0,1.12573,0.095452875,0.5986512
485,0.9017306,0.0,1.1246048,0.09535747,0.5980528
486,0.9008293,0.0,1.1234808,0.09526216,0.597455
487,0.8999289,0.0,1.1223578,0.095166944,0.7135611
488,0.89902943,0.0,1.1212361,0.09507182,0.7128479
489,0.89813083,0.0,1.1201154,0.0949768,0.7121354
490,0.8972331,0.0,1.1189958,0.09488187,0.7114236
491,0.8963363,0.0,1.1178774,0.09478703,0.7107125
492,0.8954404,0.0,1.11676,0.09469229,0.7100021
493,0.8945454,0.0,1.1156439,0.094597645,0.7092925
494,0.89365125,0.0,1.1145288,0.0945031,0.70858353
495,0.892758,0.0,1.1134148,0.09440864,0.7078753
496,0.8918657,0.0,1.112302,0.09431428,0.8238711
497,0.8909742,0.0,1.1111902,0.09422001,0.82304764
498,0.8900837,0.0,1.1100795,0.09412584,0.822225
499,0.889194,0.0,1.10897,0.09403176,0.82140315
500,0.88830525,0.0,1.1078616,0.09393777,0.82058215
501,0.8874174,0.0,1.1067543,0.09384388,0.819762
502,0.8865304,0.0,1.105648,0.09375008,0.8189426
503,0.8856443,0.0,1.104543,0.093656376,0.81812406
504,0.8847591,0.0,1.103439,0.09356277,0.81730634
505,0.8838748,0.0,1.102336,0.09346925,0.81648946
506,0.8829913,0.0,1.1012342,0.093375824,0.9323766
507,0.88210875,0.0,1.1001335,0.09328249,0.9314447
508,0.8812271,0.0,1.099034,0.093189254,0.93051374
509,0.8803463,0.0,1.0979354,0.09309611,0.92958367
510,0.87946635,0.0,1.096838,0.09300306,0.92865455
511,0.8785873,0.0,1.0957417,0.092910096,0.9277263
512,0.87770915,0.0,1.0946466,0.09281723,0.92679906
513,0.8768319,0.0,1.0935525,0.09272446,1.042576
514,0.87595546,0.0,1.0924594,0.09263178,1.041534
515,0.87507993,0.0,1.0913675,0.09253919,1.0404929
516,0.8742053,0.0,1.0902766,0.0924467,1.0394529
517,0.8733315,0.0,1.0891869,0.0923543,1.038414
518,0.8724586,0.0,1.0880983,0.092261985,1.037376
519,0.87158656,0.0,1.0870107,0.09216977,1.0363392
520,0.8707154,0.0,1.0859243,0.09207764,1.0353034
521,0.8698451,0.0,1.0848389,0.09198561,1.0342685
522,0.8689757,0.0,1.0837545,0.09189367,1.0332347
523,0.86810714,0.0,1.0826713,0.09180182,1.032202
524,0.8672395,0.0,1.0815891,0.09171007,1.0311704
525,0.86637264,0.0,1.080508,0.091618404,1.0301397
526,0.8655067,0.0,1.079428,0.09152683,1.0291101
527,0.8646416,0.0,1.0783491,0.09143534,1.0280814
528,0.8637774,0.0,1.0772713,0.091343954,1.0270538
529,0.862914,0.0,1.0761946,0.091252655,1.0260273
530,0.86205155,0.0,1.075119,0.091161445,1.0250018
531,0.8611899,0.0,1.0740445,0.09107033,1.0239773
532,0.86032915,0.0,1.072971,0.09097931,1.0229537
533,0.85946923,0.0,1.0718986,0.09088837,1.0219313
534,0.8586102,0.0,1.0708272,0.09079753,1.0209099
535,0.857752,0.0,1.069757,0.09070677,1.0198895
536,0.8568947,0.0,1.0686878,0.090616114,1.0188701
537,0.8560382,0.0,1.0676197,0.090525545,1.0178517
538,0.8551826,0.0,1.0665526,0.090435065,1.0168344
539,0.8543278,0.0,1.0654866,0.090344675,1.015818
540,0.8534739,0.0,1.0644215,0.090254374,1.0148027
541,0.9693241,0.0,1.0633576,0.09016416,1.0137883
542,0.96835524,0.0,1.0622947,0.09007404,1.0127751
543,0.9673874,0.0,1.0612329,0.08998401,1.0117627
544,0.9664205,0.0,1.0601722,0.089894064,1.0107515
545,0.9654545,0.0,1.0591125,0.08980422,1.0097412
546,0.9644895,0.0,1.058054,0.08971446,1.008732
547,0.9635255,0.0,1.0569965,0.08962479,1.0077237
548,0.96256244,0.0,1.05594,0.089535214,1.0067165
549,0.96160036,0.0,1.0548846,0.089445725,1.0057102
550,0.96063924,0.0,1.0538301,0.089356326,1.0047051
551,0.95967907,0.0,1.0527768,0.089267015,1.0037009
552,0.95871985,0.0,1.0517246,0.089177795,1.0026976
553,0.9577616,0.0,1.0506734,0.08908866,1.0016954
554,0.9568043,0.0,1.0496233,0.08899962,1.0006942
555,1.0725511,0.0,1.0485741,0.08891067,0.99969393
556,1.0714791,0.0,1.047526,0.0888218,0.9986947
557,1.0704081,0.0,1.046479,0.08873302,0.9976965
558,1.0693382,0.0,1.045433,0.088644326,0.99669933
559,1.0682694,0.0,1.0443882,0.08855572,0.9957031
560,1.0672016,0.0,1.0433443,0.08846721,0.9947079
561,1.0661349,0.0,1.0423014,0.08837879,0.9937137
562,1.1817101,0.0,1.0412596,0.08829045,0.9927204
563,1.180529,0.0,1.040219,0.08820221,0.9917282
564,1.1793491,0.0,1.0391792,0.088114046,0.99073696
565,1.1781703,0.0,1.0381405,0.08802597,0.9897467
566,1.1769928,0.0,1.0371029,0.08793799,0.98875743
567,1.1758164,0.0,1.0360663,0.087850094,0.9877692
568,1.1746411,0.0,1.0350307,0.08776229,0.9867819
569,1.173467,0.116703264,1.0339962,0.08767457,0.9857956
570,1.1722941,0.11658662,1.0329627,0.08758694,1.1015124
571,1.2875398,0.11647009,1.0319302,0.087499395,1.1004114
572,1.286253,0.116353676,1.0308988,0.08741194,1.0993116
573,1.2849673,0.11623738,1.0298684,0.087324575,1.0982128
574,1.283683,0.1161212,1.028839,0.08723729,1.0971152
575,1.2823999,0.11600514,1.0278107,0.0871501,1.0960186
576,1.2811182,0.11588919,1.0267833,0.08706299,1.094923
577,1.2798376,0.11577336,1.0257571,0.08697597,1.0938287
578,1.3945841,0.11565764,1.0247319,0.2035923,1.0927354
579,1.3931901,0.11554204,1.0237076,0.20338881,1.0916432
580,1.3917977,0.115426555,1.0226845,0.20318551,1.0905521
581,1.3904065,0.23201445,1.0216622,0.20298243,1.089462
582,1.3890167,0.23178254,1.0206411,0.20277955,1.2049787
583,1.3876284,0.23155087,1.0196209,0.20257686,1.2037743
584,1.3862414,0.23131943,1.0186018,0.20237438,1.2025712
585,1.3848559,0.23108822,1.0175837,0.20217212,1.2013692
586,1.3834717,0.23085725,1.0165666,0.20197004,1.2001684
587,1.3820889,0.23062651,1.0155506,0.20176817,1.1989688
588,1.4962064,0.23039599,1.0145355,0.31826976,1.1977704
589,1.4947109,0.34686896,1.0135216,0.31795165,1.1965731
590,1.493217,0.34652227,1.0125085,0.31763387,1.1953771
591,1.4917245,0.3461759,1.0114965,0.31731638,1.1941823
592,1.4902335,0.3458299,1.0104855,0.31699923,1.1929886
593,1.488744,0.34548426,1.0094756,0.31668237,1.1917962
594,1.487256,0.34513894,1.0084666,0.31636584,1.1906049
595,1.4857695,0.34479398,1.0074587,0.31604964,1.1894149
596,1.4842845,0.34444934,1.0064517,0.31573373,1.188226
597,1.482801,0.34410506,1.0054457,0.43212143,1.1870383
598,1.4813188,0.4604644,1.0044408,0.43168953,1.1858518
599,1.4798383,0.46000415,1.0034368,0.43125805,1.1846665
600,1.4783591,0.45954436,1.0024339,0.430827,1.1834824
601,1.5917469,0.45908505,1.001432,0.43039638,1.1822995
602,1.590156,0.45862618,1.000431,0.42996618,1.1811178
603,1.5885665,0.4581678,0.999431,0.42953643,1.1799372
604,1.5869788,0.45770985,0.9984321,0.4291071,1.1787579
605,1.5853926,0.45725235,0.99743414,0.4286782,1.1775798
606,1.583808,0.45679533,0.9964372,0.42824975,1.1764028
607,1.582225,0.45633876,0.99544126,0.54452497,1.1752269
608,1.5806435,0.45588264,0.9944463,0.5439807,1.1740522
609,1.5790637,0.455427,0.9934523,0.543437,1.1728787
610,1.5774853,0.4549718,0.99245936,0.5428938,1.1717064
611,1.5759087,0.45451704,0.99146736,0.5423512,1.1705353
612,1.5743335,0.570766,0.99047637,0.5418091,1.1693654
613,1.57276,0.5701955,0.9894864,0.5412675,1.1681966
614,1.571188,0.56962556,0.9884974,0.5407265,1.1670289
615,1.5696175,0.5690562,0.98750937,0.54018605,1.1658624
616,1.5680487,0.5684874,0.9865223,0.6563494,1.1646972
617,1.5664815,0.5679192,0.9855363,0.6556934,1.1635331
618,1.5649158,0.5673516,0.98455125,0.65503806,1.1623701
619,1.5633516,0.5667845,0.9835672,0.65438336,1.1612083
620,1.6759843,0.566218,0.9825841,0.6537293,1.1600477
621,1.6743091,0.5656521,0.981602,0.65307593,1.1588882
622,1.6726357,0.5650867,0.9806209,0.6524232,1.1577299
623,1.6709639,0.6812252,0.9796408,0.6517711,1.1565727
624,1.6692938,0.6805443,0.9786616,0.65111965,1.1554167
625,1.6676253,0.6798641,0.9776834,0.7671721,1.1542618
626,1.6659585,0.67918456,0.9767062,0.7664053,1.1531081
627,1.6642934,0.6785057,0.97573,0.76563925,1.1519556
628,1.7758942,0.67782754,0.97475475,0.764874,1.1508042
629,1.7741191,0.79385334,0.97378045,0.7641095,1.1496539
630,1.7723459,0.7930599,0.97280717,0.7633458,1.1485049
631,1.7705745,0.7922672,0.97183484,0.7625828,1.2638385
632,1.7688048,0.7914753,0.97086346,0.76182055,1.2625753
633,1.7670368,0.7906842,0.9698931,0.7610591,1.2613133
634,1.7652706,0.7898939,0.9689237,0.76029843,1.2600527
635,1.7635062,0.7891044,0.96795523,0.75953853,1.2587932
636,1.7617435,0.7883157,0.9669877,0.75877935,1.2575351
637,1.7599827,0.7875278,0.96602124,0.8747242,1.2562782
638,1.7582235,0.78674066,0.9650557,0.8738499,1.2550225
639,1.7564662,0.7859543,0.9640911,0.8729765,1.2537681
640,1.7547106,0.7851687,0.9631275,0.8721039,1.252515
641,1.7529567,0.78438395,0.9621648,0.8712323,1.251263
642,1.7512046,0.7836,0.9612031,0.87036145,1.3661585
643,1.7494543,0.89952004,0.9602424,0.8694915,1.364793
644,1.7477057,0.89862096,0.95928264,0.8686224,1.3634288
645,1.858343,0.8977228,0.95832384,0.8677542,1.362066
646,1.8564856,0.8968255,0.957366,0.8668869,1.3607047
647,1.85463,0.8959291,0.9564091,0.9827237,1.3593446
648,1.8527763,0.8950336,0.95545316,0.9817415,1.473615
649,1.8509244,0.894139,0.9544982,0.9807602,1.4721421
650,1.8490744,1.0099485,0.95354414,0.97977996,1.4706707
651,1.8472261,1.008939,0.95259106,0.97880065,1.4692007
652,1.8453798,1.0079306,0.95163894,0.9778223,1.4677322
653,1.8435353,1.0069232,0.95068777,0.97684497,1.4662652
654,1.8416927,1.0059167,0.94973755,0.9758686,1.4647996
655,1.8398519,1.0049113,0.9487883,1.0915964,1.4633355
656,1.8380129,1.0039068,0.94784,1.0905054,1.4618729
657,1.8361758,1.0029035,0.9468926,1.0894154,1.4604118
658,1.8343406,1.001901,0.9459462,1.0883266,1.4589521
659,1.8325071,1.117597,0.9450007,1.0872388,1.4574938
660,1.8306755,1.11648,0.94405615,1.0861521,1.456037
661,1.8288457,1.1153641,0.94311255,1.2016776,1.4545817
662,1.8270178,1.1142492,0.9421699,1.2004765,1.4531279
663,1.8251916,1.1131356,0.9412282,1.1992767,1.4516754
664,1.8233674,1.112023,0.9402875,1.198078,1.4502244
665,1.8215449,1.1109115,0.9393476,1.1968806,1.4487749
666,1.8197242,1.1098012,0.93840873,1.1956843,1.4473269
667,1.8179054,1.1086919,0.9374708,1.1944892,1.4458803
668,1.8160884,1.1075838,0.9365338,1.1932954,1.4444351
669,1.8142732,1.1064767,0.9355977,1.1921027,1.4429914
670,1.9240699,1.2219458,0.9346626,1.307269,1.4415491
671,1.9221468,1.2207245,0.9337284,1.3059623,1.4401082
672,1.9202256,1.2195044,0.9327951,1.304657,1.4386687
673,1.9183064,1.2182854,0.9318628,1.303353,1.4372307
674,1.916389,1.2170677,0.9309314,1.3020502,1.4357942
675,1.9144735,1.2158512,0.9300009,1.3007488,1.4343592
676,1.91256,1.214636,0.92907137,1.2994487,1.4329256
677,1.9106483,1.329705,0.9281427,1.29815,1.5466744
678,1.9087386,1.3283759,0.92721504,1.2968525,1.5451285
679,1.9068308,1.3270482,0.9262883,1.2955563,1.5435841
680,2.0153525,1.3257217,0.92536247,1.4102159,1.5420413
681,2.013338,1.3243966,0.9244376,1.4088063,1.5405
682,2.0113258,1.3230729,0.9235136,1.4073982,1.5389603
683,2.0093155,1.3217505,0.92259055,1.4059916,1.5374222
684,2.007307,1.4362575,0.9216684,1.4045862,1.5358855
685,2.0053008,1.434822,0.9207472,1.4031823,1.5343503
686,2.0032964,1.4333879,0.9198269,1.4017798,1.5328166
687,2.0012941,1.4319552,0.9189075,1.4003787,1.5312846
688,1.9992938,1.430524,0.9179891,1.5143678,1.529754
689,1.9972955,1.4290942,0.9170715,1.5128542,1.5282251
690,1.9952992,1.4276658,0.9161549,1.511342,1.5266976
691,1.9933048,1.5414546,0.9152392,1.5098314,1.5251716
692,1.9913125,1.5399139,0.9143244,1.5083224,1.5236472
693,1.9893222,1.5383748,0.91341054,1.5068147,1.5221243
694,1.9873339,1.5368371,0.9124976,1.5053086,1.520603
695,1.9853475,1.535301,0.9115855,1.6184682,1.5190831
696,1.9833632,1.5337664,0.9106744,1.6168505,1.5175648
697,1.9813807,1.5322334,0.9097642,1.6152345,1.516048
698,1.9794003,1.5307019,0.90885484,1.61362,1.5145327
699,1.9774219,1.529172,0.9079464,1.6120073,1.5130188
700,1.9754454,1.5276436,0.9070389,1.610396,1.5115066
701,1.9734709,1.640606,0.90613234,1.6087865,1.5099958
702,1.9714984,1.6389662,0.90522665,1.6071784,1.5084865
703,1.9695278,1.637328,0.90432185,1.6055721,1.5069788
704,1.9675592,1.6356915,0.90341794,1.6039673,1.5054725
705,1.9655926,1.6340567,0.902515,1.7162024,1.5039678
706,1.9636279,1.6324234,0.90161294,1.7144871,1.5024645
707,1.9616653,1.6307918,0.9007118,1.7127734,1.5009629
708,1.9597045,1.6291618,0.8998115,1.7110615,1.4994626
709,1.9577458,1.6275334,0.89891213,1.7093513,1.4979639
710,1.955789,1.6259067,0.89801365,1.7076428,1.4964666
711,1.9538342,1.6242816,0.89711607,1.705936,1.4949709
712,1.9518813,1.7363089,0.8962194,1.7042309,1.4934766
713,1.9499303,1.7345735,0.8953236,1.7025275,1.4919839
714,1.9479814,1.7328397,0.8944287,1.7008258,1.4904926
715,1.9460343,1.7311077,0.89353466,1.6991258,1.4890028
716,1.9440892,1.7293775,0.89264154,1.6974275,1.4875145
717,1.9421461,1.727649,0.8917493,1.8086575,1.4860277
718,1.9402049,1.7259222,0.890858,1.8068497,1.4845424
719,1.9382656,1.7241971,0.88996756,1.8050437,1.4830586
720,1.9363283,1.835116,0.889078,1.8032396,1.4815762
721,1.9343929,1.8332818,0.8881894,1.8014373,1.4800954
722,1.9324595,1.8314494,0.8873016,1.7996367,1.478616
723,1.9305279,1.8296188,0.88641477,1.9096237,1.4771382
724,1.9285983,1.8277901,0.8855288,1.9077151,1.4756618
725,1.9266707,1.8259633,0.88464373,1.9058083,1.4741868
726,1.924745,1.8241382,0.8837595,1.9039035,1.4727134
727,1.9228212,1.822315,0.88287616,1.9020005,1.4712414
728,1.9208993,1.8204936,0.8819937,1.9000995,1.4697708
729,1.9189793,1.818674,0.88111216,1.8982004,1.4683018
730,1.9170612,1.8168561,0.8802315,1.8963032,1.4668342
731,1.915145,1.8150402,0.8793517,1.8944077,1.465368
732,1.9132308,1.8132261,0.87847275,1.8925142,1.4639034
733,1.9113185,1.8114138,0.8775947,2.0012412,1.4624403
734,1.9094082,1.8096032,0.87671757,1.999241,1.4609785
735,1.9074998,1.8077945,0.87584126,1.9972427,1.4595182
736,1.9055933,1.9176757,0.87496585,1.9952464,1.4580594
737,1.9036887,1.915759,0.8740913,1.9932522,1.4566021
738,1.901786,1.9138441,0.87321764,1.9912599,1.4551462
739,1.899885,1.9119312,0.87234485,1.9892696,1.4536917
740,2.0085068,1.9100201,0.87147295,1.9872813,1.4522388
741,2.0064993,1.908111,0.8706019,1.985295,1.4507873
742,2.0044937,1.9062037,0.8697317,1.9833107,1.4493372
743,2.0024903,1.9042984,0.8688624,1.9813284,1.4478886
744,2.0004888,2.0128567,0.86799395,1.9793481,1.4464414
745,1.9984893,2.010845,0.8671264,1.9773697,1.4449956
746,1.9964918,2.008835,0.8662597,2.084837,1.4435513
747,1.9944962,2.006827,0.8653939,2.0827532,1.4421085
748,2.1016967,2.0048213,0.8645289,2.0806715,1.4406672
749,2.099596,2.0028174,0.8636648,2.0785918,1.4392272
750,2.0974975,2.0008156,0.86280155,2.0765142,1.4377887
751,2.095401,1.9988158,0.8619392,2.0744388,1.4363517
752,2.0933068,1.996818,0.86107767,2.0723653,1.434916
753,2.0912144,1.9948221,0.86021703,2.070294,1.4334818
754,2.0891242,2.1020176,0.85935724,2.0682247,1.432049
755,2.0870361,2.0999167,0.8584983,2.0661573,1.5458045
756,2.0849502,2.097818,0.8576402,2.0640922,1.5442594
757,2.0828662,2.095721,0.856783,2.0620291,1.5427159
758,2.0807843,2.0936263,0.85592663,2.059968,1.5411739
759,2.0787046,2.0915337,0.8550711,2.057909,1.5396335
760,2.076627,2.0894432,0.85421646,2.0558522,1.5380946
761,2.0745513,2.087355,0.8533627,2.0537972,1.5365573
762,2.0724778,2.0852685,0.85250974,2.0517445,1.5350215
763,2.0704064,2.0831842,0.8516576,2.0496938,1.5334873
764,2.068337,2.0811021,0.8508064,2.047645,1.5319545
765,2.1743388,2.079022,0.84995604,2.0455985,1.5304233
766,2.1721656,2.0769439,0.8491065,2.0435538,1.5288936
767,2.1699946,2.074868,0.8482578,2.0415113,1.5273654
768,2.1678257,2.0727942,0.84740996,2.0394707,1.5258389
769,2.165659,2.0707223,0.846563,2.0374322,1.5243138
770,2.1634943,2.0686526,0.84571683,2.0353959,1.5227902
771,2.161332,2.066585,0.8448715,2.0333614,1.5212681
772,2.1591716,2.0645194,0.84402704,2.139941,1.6342876
773,2.1570134,2.062456,0.84318346,2.1378021,1.6326541
774,2.1548574,2.0603945,0.8423407,2.1356654,1.6310222
775,2.1527035,2.058335,0.8414988,2.1335309,1.629392
776,2.1505518,2.0562778,0.8406577,2.1313984,1.6277634
777,2.1484022,2.0542226,0.83981746,2.1292682,1.6261364
778,2.1462548,2.0521693,0.83897805,2.12714,1.6245111
779,2.2509067,2.0501182,0.8381395,2.1250138,1.6228874
780,2.248657,2.048069,0.83730173,2.1228898,1.6212653
781,2.2464094,2.046022,0.8364648,2.1207678,1.7333238
782,2.244164,2.043977,0.83562875,2.118648,1.7315913
783,2.241921,2.150383,0.8347935,2.1165304,1.7298605
784,2.23968,2.1482337,0.8339591,2.114415,1.7281315
785,2.2374415,2.1460865,0.83312553,2.1123016,1.7264042
786,2.2352052,2.1439414,0.8322928,2.1101904,1.7246786
787,2.232971,2.1417985,0.8314609,2.1080813,1.7229548
788,2.230739,2.1396577,0.8306298,2.1059742,1.7212327
789,2.2285094,2.1375191,0.8297996,2.1038692,1.7195122
790,2.2262821,2.1353827,0.8289702,2.1017663,1.7177936
791,2.224057,2.2402282,0.8281416,2.0996656,1.7160766
792,2.221834,2.237989,0.8273139,2.097567,1.7143614
793,2.2196133,2.235752,0.826487,2.0954704,1.7126479
794,2.2173948,2.2335174,0.82566094,2.093376,1.7109361
795,2.2151785,2.231285,0.82483566,2.0912836,1.709226
796,2.2129643,2.229055,0.8240112,2.0891933,1.8203202
797,2.2107525,2.226827,0.8231876,2.0871053,1.8185009
798,2.2085428,2.2246013,0.8223648,2.085019,1.8166833
799,2.2063353,2.2223778,0.82154286,2.082935,1.8148675
800,2.20413,2.2201564,0.82072175,2.0808532,1.8130535
801,2.201927,2.2179375,0.8199014,2.0787735,1.8112413
802,2.199726,2.2157207,0.8190819,2.0766957,1.809431
803,2.1975274,2.213506,0.81826323,2.07462,1.8076224
804,2.1953309,2.2112935,0.8174454,2.0725465,1.8058157
805,2.2990878,2.2090833,0.81662834,2.0704749,1.8040107
806,2.29679,2.2068753,0.8158121,2.0684054,1.8022076
807,2.2944942,2.2046695,0.8149967,2.066338,1.8004062
808,2.2922008,2.2024658,0.8141821,2.0642726,1.7986066
809,2.2899098,2.2002645,0.8133683,2.0622094,1.796809
810,2.287621,2.3039293,0.8125554,2.0601482,1.7950131
811,2.2853346,2.3016264,0.8117432,2.058089,1.793219
812,2.2830503,2.299326,0.81093186,2.056032,1.7914267
813,2.2807684,2.2970278,0.8101213,2.162239,1.7896361
814,2.2784886,2.2947319,0.80931157,2.1600778,1.7878474
815,2.2762113,2.2924383,0.8085027,2.1579187,1.7860605
816,2.2739363,2.290147,0.80769455,2.1557617,1.7842753
817,2.2716634,2.287858,0.80688727,2.1536071,1.7824919
818,2.269393,2.2855713,0.80608076,2.1514547,1.7807103
819,2.2671247,2.3875916,0.8052751,2.1493044,1.7789305
820,2.2648587,2.3852053,0.8044702,2.1471562,1.7771525
821,2.262595,2.3828213,0.8036661,2.1450102,1.7753762
822,2.2603335,2.3804398,0.8028628,2.1428664,1.7736017
823,2.2580743,2.3780606,0.80206037,2.1407247,1.7718289
824,2.2558174,2.3756838,0.8012587,2.138585,1.7700579
825,2.2535627,2.3733094,0.80045784,2.1364477,1.7682887
826,2.2513103,2.370937,0.79965776,2.1343122,1.7665213
827,2.2490602,2.3685672,0.7988585,2.1321788,1.7647557
828,2.246812,2.3661997,0.79806006,2.237081,1.7629918
829,2.2445664,2.4665694,0.7972624,2.2348452,1.8734417
830,2.242323,2.4641042,0.7964655,2.2326114,1.8715692
831,2.2400818,2.4616413,0.79566944,2.2303798,1.8696985
832,2.342992,2.4591808,0.79487413,2.2281506,1.8678298
833,2.3406503,2.4567227,0.79407966,2.2259235,1.8659629
834,2.3383107,2.4542673,0.79328597,2.2236986,1.8640978
835,2.3359735,2.4518142,0.79249305,2.221476,1.8622346
836,2.3336387,2.4493635,0.79170096,2.2192557,1.8603733
837,2.3313062,2.4469154,0.79090965,2.2170374,1.8585138
838,2.3289762,2.4444697,0.7901191,2.2148216,1.8566562
839,2.3266482,2.4420264,0.78932935,2.2126079,1.8548005
840,2.3243227,2.4395854,0.7885404,2.2103963,1.8529465
841,2.3219995,2.4371471,0.7877523,2.2081869,1.8510945
842,2.3196788,2.4347112,0.7869649,2.2059798,1.9603987
843,2.3173602,2.4322777,0.7861783,2.203775,1.9584392
844,2.315044,2.4298465,0.7853925,2.2015722,1.9564817
845,2.31273,2.4274178,0.7846075,2.1993716,1.9545262
846,2.3104184,2.4249916,0.7838233,2.1971734,1.9525726
847,2.308109,2.4225678,0.78303987,2.1949773,1.950621
848,2.305802,2.4201465,0.7822572,2.2987406,1.9486713
849,2.3034976,2.4177275,0.7814753,2.296443,1.9467236
850,2.3011951,2.4153109,0.7806942,2.2941477,1.9447778
851,2.2988951,2.4128966,0.7799139,2.2918546,1.942834
852,2.2965972,2.410485,0.7791344,2.289564,1.9408921
853,2.2943017,2.4080758,0.77835566,2.2872756,1.9389522
854,2.2920086,2.405669,0.7775777,2.2849894,1.9370142
855,2.2897177,2.4032645,0.7768005,2.2827055,1.9350781
856,2.287429,2.502844,0.7760241,2.2804239,1.933144
857,2.285143,2.5003424,0.77524847,2.2781446,1.9312118
858,2.3871717,2.4978433,0.7744736,2.2758675,1.9292816
859,2.3847857,2.4953465,0.7736995,2.2735927,1.9273533
860,2.382402,2.4928524,0.7729262,2.3758504,1.9254268
861,2.3800206,2.4903607,0.7721537,2.3734758,1.9235023
862,2.3776417,2.4878716,0.7713819,2.3711035,1.9215797
863,2.3752651,2.485385,0.7706109,2.3687336,1.9196591
864,2.372891,2.4829009,0.7698407,2.3663661,1.9177405
865,2.3705192,2.4804192,0.7690713,2.364001,1.9158237
866,2.3681498,2.4779398,0.76830256,2.3616383,1.9139088
867,2.3657827,2.4754632,0.7675346,2.3592777,1.9119959
868,2.4661613,2.4729888,0.76676744,2.3569195,1.9100848
869,2.4636962,2.4705172,0.76600105,2.3545637,1.9081757
870,2.4612339,2.5686126,0.7652354,2.3522103,2.016678
871,2.4587739,2.5660453,0.7644706,2.3498592,2.0146625
872,2.4563162,2.5634804,0.7637065,2.3475106,2.0126488
873,2.4538612,2.560918,0.76294315,2.3451643,2.010637
874,2.4514086,2.5583584,0.76218057,2.3428202,2.0086274
875,2.4489584,2.5558014,0.76141876,2.3404784,2.0066197
876,2.4465106,2.5532467,0.7606577,2.338139,2.004614
877,2.4440653,2.5506947,0.7598975,2.335802,2.0026104
878,2.4416225,2.5481453,0.7591379,2.3334675,2.000609
879,2.439182,2.5455985,0.75837916,2.3311353,1.9986093
880,2.436744,2.64196,0.75762117,2.3288052,1.9966117
881,2.4343085,2.6393192,0.7568639,2.3264775,1.994616
882,2.4318755,2.636681,0.7561074,2.3241522,1.9926224
883,2.4294448,2.6340456,0.75535166,2.3218293,1.9906307
884,2.4270165,2.6314127,0.7545967,2.3195086,1.9886411
885,2.4245906,2.6287825,0.7538425,2.4208455,1.9866534
886,2.4221673,2.626155,0.753089,2.4184258,1.9846678
887,2.4197464,2.6235301,0.75233626,2.4160085,1.9826841
888,2.417328,2.620908,0.7515843,2.4135935,1.9807024
889,2.4149117,2.6182883,0.7508331,2.4111812,1.9787227
890,2.412498,2.6156712,0.7500826,2.4087713,1.9767449
891,2.4100866,2.6130567,0.7493329,2.4063637,1.9747691
892,2.4076777,2.707791,0.7485839,2.4039586,1.9727954
893,2.405271,2.7050846,0.7478357,2.4015558,1.9708235
894,2.402867,2.702381,0.74708825,2.3991554,1.9688537
895,2.4004655,2.6996799,0.7463415,2.3967574,1.9668858
896,2.3980663,2.6969814,0.7455956,2.3943617,1.9649199
897,2.3956695,2.6942859,0.74485034,2.3919685,1.962956
898,2.393275,2.7869742,0.7441059,2.491791,1.960994
899,2.390883,2.7841885,0.7433621,2.4893005,1.959034
900,2.3884933,2.7814057,0.74261916,2.4868124,1.9570758
901,2.386106,2.7786257,0.7418769,2.4843268,1.9551197
902,2.486054,2.7758484,0.74113536,2.4818437,1.9531655
903,2.4835691,2.773074,0.7403946,2.479363,1.9512134
904,2.4810867,2.7703023,0.73965454,2.4768848,1.9492631
905,2.478607,2.7675333,0.73891526,2.474409,1.9473147
906,2.4761295,2.7647672,0.7381767,2.471936,1.9453684
907,2.4736545,2.7620037,0.7374389,2.4694653,1.943424
908,2.471182,2.759243,0.73670185,2.466997,1.9414815
909,2.468712,2.7564852,0.7359655,2.4645312,1.939541
910,2.4662447,2.75373,0.7352299,2.4620678,1.9376024
911,2.4637797,2.7509778,0.73449504,2.459607,1.9356657
912,2.461317,2.748228,0.7337609,2.4571486,1.933731
913,2.458857,2.7454813,0.7330275,2.4546926,1.9317982
914,2.4563994,2.742737,0.73229486,2.452239,1.9298674
915,2.4539442,2.7399957,0.7315629,2.449788,2.0380526
916,2.4514914,2.737257,0.7308317,2.4473395,2.0360155
917,2.4490411,2.7345212,0.7301012,2.4448934,2.0339806
918,2.4465933,2.731788,0.7293715,2.4424496,2.0319476
919,2.4441478,2.7290576,0.72864246,2.4400084,2.0299168
920,2.441705,2.7263298,0.72791415,2.4375696,2.0278878
921,2.4392645,2.723605,0.7271866,2.4351332,2.025861
922,2.4368265,2.7208827,0.7264598,2.4326992,2.0238361
923,2.4343908,2.718163,0.7257337,2.4302678,2.0218134
924,2.4319575,2.7154462,0.7250083,2.5292594,2.0197926
925,2.4295268,2.712732,0.72428364,2.5267315,2.0177739
926,2.4270985,2.7100208,0.7235597,2.524206,2.015757
927,2.4246726,2.707312,0.7228365,2.521683,2.0137422
928,2.422249,2.704606,0.722114,2.5191624,2.0117295
929,2.419828,2.7019029,0.7213923,2.5166445,2.118657
930,2.4174092,2.6992023,0.72067124,2.5141292,2.1165395
931,2.414993,2.6965044,0.7199509,2.5116162,2.114424
932,2.4125793,2.6938093,0.7192313,2.509106,2.1123106
933,2.410168,2.6911168,0.7185124,2.506598,2.1101995
934,2.407759,2.688427,0.71779424,2.5040927,2.1080904
935,2.4053524,2.6857398,0.7170768,2.5015898,2.1059833
936,2.4029481,2.6830554,0.71636003,2.4990895,2.1038783
937,2.4005463,2.6803737,0.715644,2.4965916,2.1017754
938,2.3981469,2.6776946,0.7149287,2.4940963,2.0996747
939,2.3957498,2.675018,0.7142141,2.4916034,2.0975761
940,2.3933551,2.6723444,0.7135002,2.489113,2.0954795
941,2.3909628,2.6696734,0.71278703,2.4866252,2.093385
942,2.388573,2.667005,0.7120746,2.4841397,2.0912926
943,2.3861856,2.6643393,0.71136284,2.4816568,2.0892024
944,2.3838007,2.6616762,0.7106518,2.4791763,2.0871143
945,2.3814182,2.659016,0.7099415,2.4766984,2.0850282
946,2.3790379,2.6563582,0.7092319,2.474223,2.0829442
947,2.3766599,2.6537032,0.70852304,2.4717498,2.0808623
948,2.3742843,2.6510508,0.7078149,2.4692793,2.0787826
949,2.371911,2.648401,0.7071074,2.4668112,2.0767047
950,2.3695402,2.6457539,0.7064007,2.4643457,2.074629
951,2.3671718,2.6431093,0.7056946,2.4618826,2.0725555
952,2.3648057,2.6404674,0.70498925,2.4594219,2.070484
953,2.362442,2.6378284,0.7042846,2.4569635,2.0684144
954,2.3600807,2.635192,0.7035807,2.4545078,2.174415
955,2.3577218,2.632558,0.70287746,2.4520545,2.1722417
956,2.3553653,2.629927,0.7021749,2.4496036,2.1700704
957,2.3530111,2.6272984,0.70147306,2.4471552,2.1679015
958,2.3506594,2.6246724,0.7007719,2.4447093,2.1657348
959,2.3483098,2.622049,0.7000715,2.4422657,2.1635702
960,2.3459625,2.6194284,0.6993718,2.4398246,2.1614077
961,2.3436177,2.6168103,0.6986728,2.437386,2.1592474
962,2.3412752,2.6141949,0.69797444,2.4349499,2.1570892
963,2.3389351,2.611582,0.69727683,2.432516,2.1549332
964,2.3365974,2.6089718,0.6965799,2.4300847,2.1527793
965,2.334262,2.6063643,0.69588363,2.4276557,2.1506276
966,2.3319287,2.603759,0.6951881,2.4252293,2.148478
967,2.329598,2.6011565,0.69449323,2.4228053,2.1463306
968,2.3272696,2.5985565,0.6937991,2.4203837,2.1441853
969,2.3249435,2.5959592,0.69310564,2.4179645,2.1420422
970,2.3226197,2.5933645,0.69241285,2.4155476,2.1399012
971,2.3202982,2.5907724,0.6917208,2.4131331,2.1377623
972,2.317979,2.588183,0.6910294,2.4107213,2.2425656
973,2.3156621,2.585596,0.69033873,2.4083118,2.2403243
974,2.3133476,2.5830119,0.68964875,2.4059048,2.238085
975,2.3110354,2.58043,0.6889594,2.4035,2.235848
976,2.3087256,2.5778508,0.6882708,2.4010978,2.2336133
977,2.306418,2.5752742,0.68758285,2.3986979,2.2313807
978,2.3041127,2.5727003,0.6868956,2.3963003,2.2291503
979,2.3018098,2.570129,0.686209,2.3939052,2.2269223
980,2.299509,2.56756,0.68552315,2.3915124,2.2246964
981,2.2972107,2.5649936,0.68483794,2.389122,2.222473
982,2.2949147,2.56243,0.68415344,2.386734,2.2202516
983,2.292621,2.5598688,0.6834696,2.3843484,2.2180324
984,2.2903295,2.55731,0.68278646,2.3819652,2.2158153
985,2.2880402,2.554754,0.682104,2.3795843,2.2136006
986,2.2857533,2.5522006,0.68142223,2.3772058,2.211388
987,2.2834687,2.5496497,0.68074113,2.3748298,2.2091777
988,2.2811863,2.5471013,0.68006074,2.372456,2.2069697
989,2.2789063,2.5445554,0.679381,2.3700848,2.204764
990,2.2766285,2.5420122,0.67870194,2.3677158,2.2025602
991,2.274353,2.5394714,0.6780236,2.3653493,2.2003586
992,2.2720797,2.5369332,0.6773459,2.3629851,2.1981595
993,2.2698088,2.5343976,0.6766689,2.3606234,2.1959624
994,2.26754,2.5318644,0.67599255,2.358264,2.1937675
995,2.2652736,2.5293338,0.6753169,2.355907,2.1915748
996,2.2630093,2.5268056,0.6746419,2.353552,2.1893842
997,2.2607474,2.52428,0.6739676,2.3511996,2.187196
998,2.2584877,2.5217571,0.67329395,2.3488495,2.18501
999,2.2562304,2.5192366,0.672621,2.3465018,2.182826
1000,2.2539752,2.5167186,0.67194873,2.3441565,2.1806443
1001,2.2517223,2.514203,0.6712771,2.3418136,2.1784647
1002,2.2494717,2.5116901,0.67060614,2.339473,2.1762872
1003,2.2472234,2.5091796,0.6699359,2.3371346,2.1741118
1004,2.2449772,2.5066717,0.6692663,2.3347986,2.171939
1005,2.2427332,2.5041661,0.66859734,2.332465,2.169768
1006,2.2404916,2.5016632,0.66792905,2.3301337,2.1675994
1007,2.2382522,2.4991627,0.6672614,2.3278046,2.2718663
1008,2.236015,2.4966648,0.6665945,2.3254778,2.2695956
1009,2.2337801,2.4941692,0.66592824,2.3231535,2.267327
1010,2.2315474,2.4916763,0.66526264,2.3208315,2.265061
1011,2.229317,2.4891858,0.6645977,2.3185117,2.2627969
1012,2.2270887,2.486698,0.6639334,2.3161943,2.2605352
1013,2.2248626,2.4842124,0.6632698,2.3138793,2.2582757
1014,2.2226388,2.4817295,0.6626069,2.3115666,2.2560186
1015,2.2204173,2.479249,0.6619446,2.309256,2.2537637
1016,2.2181978,2.4767709,0.661283,2.306948,2.251511
1017,2.2159808,2.4742954,0.66062206,2.3046422,2.2492607
1018,2.2137659,2.4718223,0.65996176,2.3023386,2.2470126
1019,2.211553,2.4693518,0.6593021,2.3000374,2.2447667
1020,2.2093427,2.4668837,0.6586431,2.2977386,2.242523
1021,2.2071345,2.464418,0.6579848,2.2954419,2.2402816
1022,2.2049284,2.4619548,0.6573271,2.2931476,2.2380424
1023,2.2027245,2.459494,0.6566701,2.2908556,2.2358055
1024,2.200523,2.4570358,0.6560137,2.2885659,2.2335708
1025,2.1983235,2.4545798,0.655358,2.2862785,2.2313383
1026,2.1961262,2.4521265,0.65470296,2.2839932,2.229108
1027,2.193931,2.4496756,0.65404856,2.2817104,2.22688
1028,2.1917381,2.447227,0.6533948,2.2794297,2.2246542
1029,2.1895475,2.444781,0.65274173,2.2771513,2.2224307
1030,2.187359,2.4423375,0.6520893,2.2748754,2.2202094
1031,2.1851728,2.4398963,0.6514375,2.2726016,2.2179902
1032,2.1829886,2.4374576,0.6507864,2.2703302,2.2157733
1033,2.1808066,2.4350214,0.65013593,2.268061,2.2135587
1034,2.178627,2.4325876,0.6494861,2.265794,2.2113461
1035,2.1764495,2.4301562,0.648837,2.2635293,2.2091358
1036,2.1742742,2.4277272,0.6481885,2.261267,2.2069278
1037,2.172101,2.4253006,0.6475406,2.2590067,2.204722
1038,2.16993,2.4228766,0.6468934,2.256749,2.2025182
1039,2.167761,2.420455,0.6462468,2.2544932,2.2003167
1040,2.1655943,2.4180357,0.64560086,2.25224,2.1981175
1041,2.1634297,2.415619,0.6449556,2.2499888,2.1959205
1042,2.1612673,2.4132044,0.64431095,2.2477398,2.1937256
1043,2.159107,2.4107924,0.643667,2.2454932,2.1915329
1044,2.1569488,2.4083827,0.6430236,2.2432487,2.1893425
1045,2.154793,2.4059753,0.6423809,2.2410066,2.1871543
1046,2.1526394,2.4035707,0.64173883,2.2387667,2.1849682
1047,2.150488,2.4011683,0.6410974,2.236529,2.1827843
1048,2.1483386,2.3987684,0.6404566,2.2342937,2.1806026
1049,2.1461914,2.396371,0.63981646,2.2320604,2.178423
1050,2.1440463,2.3939757,0.63917696,2.2298295,2.1762457
1051,2.1419034,2.391583,0.6385381,2.2276008,2.1740706
1052,2.1397626,2.3891926,0.6378999,2.2253742,2.1718976
1053,2.137624,2.3868046,0.6372623,2.22315,2.1697268
1054,2.1354876,2.384419,0.63662535,2.220928,2.1675582
1055,2.1333532,2.3820357,0.635989,2.218708,2.1653917
1056,2.1312208,2.379655,0.6353533,2.2164905,2.1632273
1057,2.1290905,2.3772764,0.6347183,2.2142751,2.161065
1058,2.1269624,2.3749003,0.63408387,2.212062,2.158905
1059,2.1248364,2.3725266,0.6334501,2.3155055,2.156747
1060,2.1227126,2.3701553,0.632817,2.3131912,2.1545913
1061,2.120591,2.3677864,0.63218445,2.3108792,2.1524377
1062,2.1184714,2.3654199,0.6315526,2.3085694,2.1502862
1063,2.116354,2.3630557,0.6309213,2.306262,2.1481369
1064,2.1142387,2.3606937,0.6302907,2.303957,2.1459897
1065,2.1121256,2.358334,0.6296607,2.301654,2.1438446
1066,2.1100144,2.3559768,0.62903136,2.2993536,2.1417017
1067,2.1079054,2.353622,0.62840265,2.2970555,2.139561
1068,2.1057985,2.3512695,0.62777454,2.2947595,2.1374223
1069,2.1036937,2.3489194,0.6271471,2.292466,2.1352859
1070,2.101591,2.3465717,0.6265202,2.2901745,2.1331515
1071,2.0994906,2.3442264,0.625894,2.2878854,2.1310194
1072,2.097392,2.3418832,0.6252684,2.2855988,2.1288893
1073,2.0952957,2.3395424,0.62464345,2.2833142,2.1267614
1074,2.0932014,2.4404683,0.6240191,2.281032,2.1246357
1075,2.0911093,2.438029,0.6233954,2.278752,2.122512
1076,2.0890193,2.4355922,0.6227723,2.2764745,2.1203907
1077,2.0869312,2.4331577,0.6221498,2.274199,2.1182714
1078,2.0848453,2.4307258,0.62152797,2.271926,2.1161542
1079,2.0827615,2.4282963,0.6209068,2.2696552,2.1140392
1080,2.08068,2.4258692,0.62028617,2.2673867,2.111926
1081,2.0786002,2.4234445,0.61966616,2.2651205,2.1098151
1082,2.0765226,2.4210222,0.6190468,2.2628565,2.1077063
1083,2.0744472,2.4186022,0.61842805,2.2605948,2.1055996
1084,2.0723736,2.416185,0.61780995,2.2583354,2.1034951
1085,2.0703022,2.41377,0.61719245,2.256078,2.1013927
1086,2.068233,2.4113574,0.61657554,2.253823,2.0992923
1087,2.0661657,2.4089472,0.6159593,2.2515702,2.097194
1088,2.0641005,2.4065394,0.61534363,2.2493198,2.0950978
1089,2.0620375,2.404134,0.61472857,2.2470715,2.0930037
1090,2.0599763,2.401731,0.61411417,2.2448256,2.0909119
1091,2.0579174,2.3993304,0.61350036,2.2425818,2.088822
1092,2.0558605,2.3969321,0.61288714,2.2403405,2.086734
1093,2.0538056,2.3945363,0.6122745,2.2381012,2.0846484
1094,2.0517528,2.392143,0.61166257,2.2358642,2.0825648
1095,2.0497022,2.3897521,0.6110512,2.2336295,2.0804832
1096,2.0476534,2.3873637,0.61044043,2.231397,2.0784037
1097,2.0456069,2.3849776,0.6098303,2.2291665,2.0763264
1098,2.0435622,2.3825939,0.6092208,2.2269385,2.0742512
1099,2.0415196,2.3802125,0.6086119,2.2247126,2.072178
1100,2.039479,2.3778336,0.60800356,2.2224889,2.0701067
1101,2.0374405,2.375457,0.6073958,2.2202675,2.0680377
1102,2.0354042,2.3730826,0.60678875,2.2180483,2.0659707
1103,2.0333698,2.3707106,0.6061823,2.2158313,2.0639057
1104,2.0313375,2.368341,0.6055764,2.2136166,2.061843
1105,2.0293071,2.3659737,0.6049711,2.211404,2.059782
1106,2.027279,2.3636088,0.6043664,2.2091937,2.0577233
1107,2.0252526,2.3612463,0.6037623,2.2069857,2.0556667
1108,2.0232284,2.3588862,0.6031589,2.2047799,2.053612
1109,2.0212061,2.3565285,0.60255605,2.2025762,2.0515594
1110,2.019186,2.4571013,0.6019538,2.2003746,2.0495088
1111,2.0171678,2.4546454,0.60135216,2.1981752,2.0474603
1112,2.0151517,2.452192,0.6007511,2.1959782,2.045414
1113,2.0131376,2.4497411,0.60015064,2.1937833,2.0433695
1114,2.0111253,2.4472926,0.5995508,2.1915905,2.0413272
1115,2.0091152,2.4448464,0.5989515,2.1894,2.0392869
