timestep,N,F,SVEB,VEB
0,0.25,0.25,0.25,0.25
1,0.25,0.25,0.25,0.25
2,0.25,0.25,0.25,0.25
3,0.25,0.25,0.25,0.25
4,0.25,0.25,0.25,0.25
5,0.25,0.25,0.25,0.25
6,0.25,0.25,0.25,0.25
7,0.25,0.25,0.25,0.25
8,0.25,0.25,0.25,0.25
9,0.25,0.25,0.25,0.25
10,0.25,0.25,0.25,0.25
11,0.25,0.25,0.25,0.25
12,0.25,0.25,0.25,0.25
13,0.25,0.25,0.25,0.25
14,0.25,0.25,0.25,0.25
15,0.25,0.25,0.25,0.25
16,0.25,0.25,0.25,0.25
17,0.25,0.25,0.25,0.25
18,0.25,0.25,0.25,0.25
19,0.25,0.25,0.25,0.25
20,0.25,0.25,0.25,0.25
21,0.25,0.25,0.25,0.25
22,0.25,0.25,0.25,0.25
23,0.25,0.25,0.25,0.25
24,0.25,0.25,0.25,0.25
25,0.25,0.25,0.25,0.25
26,0.25,0.25,0.25,0.25
27,0.25,0.25,0.25,0.25
28,0.25,0.25,0.25,0.25
29,0.25,0.25,0.25,0.25
30,0.25,0.25,0.25,0.25
31,0.2092937,0.2514852,0.2846015,0.25461957
32,0.17221634,0.26371458,0.3080968,0.25597227
33,0.1454985,0.28882083,0.31931528,0.24636544
34,0.14391264,0.28660956,0.3173686,0.2521092
35,0.14253213,0.29354104,0.3180626,0.2458642
36,0.12139006,0.3019079,0.34031376,0.23638833
37,0.112557344,0.28391644,0.3615729,0.24195337
38,0.10963388,0.2957253,0.36021408,0.23442672
39,0.10805714,0.3005233,0.35250264,0.23891696
40,0.08606627,0.3394744,0.36206037,0.21239899
41,0.07824879,0.3529342,0.3726786,0.19613831
42,0.07543619,0.36690655,0.37315002,0.18450725
43,0.07580638,0.36813092,0.36820862,0.18785413
44,0.08088298,0.36364433,0.36371732,0.1917554
45,0.07954994,0.34250113,0.3713329,0.20661601
46,0.065794975,0.37583494,0.37497044,0.1833996
47,0.070754126,0.37122738,0.3704151,0.18760343
48,0.059183042,0.4111888,0.36523217,0.164396
49,0.056700397,0.39284486,0.39091727,0.1595375
50,0.049888864,0.4321738,0.37806243,0.139875
51,0.052810963,0.4316555,0.37149462,0.14403884
52,0.05694327,0.39542973,0.40170553,0.14592147
53,0.059576944,0.39470473,0.396151,0.14956732
54,0.0606359,0.39509162,0.39023829,0.15403424
55,0.05349344,0.42048815,0.38590276,0.14011566
56,0.05827952,0.41427606,0.38179672,0.14564763
57,0.060906198,0.4143825,0.37520868,0.14950266
58,0.03644226,0.44274583,0.40513593,0.11567587
59,0.028190095,0.42631435,0.4411899,0.10430561
60,0.024036305,0.43808168,0.4437133,0.09416872
61,0.023444021,0.4491985,0.42922312,0.09813435
62,0.019739525,0.4404488,0.43991628,0.0998955
63,0.020976232,0.40972945,0.464386,0.10490832
64,0.022948382,0.37406296,0.49148628,0.111502364
65,0.02015331,0.40279886,0.48228312,0.09476459
66,0.020127708,0.41693556,0.46809715,0.09483955
67,0.019658756,0.43045488,0.46238083,0.087505594
68,0.021826804,0.44619983,0.44634923,0.08562406
69,0.023170022,0.4530735,0.43321797,0.09053849
70,0.027789636,0.45230424,0.42248043,0.09742573
71,0.029361546,0.4500133,0.4225235,0.098101534
72,0.03495884,0.40699133,0.44574326,0.11230666
73,0.033291526,0.42439646,0.4364498,0.105862215
74,0.033758696,0.43328446,0.42813247,0.104824424
75,0.035176545,0.43356583,0.42891395,0.102343686
76,0.035002146,0.44295523,0.42339334,0.09864938
77,0.035184667,0.46597087,0.402129,0.09671547
78,0.03960625,0.42246133,0.4321034,0.105828986
79,0.040364303,0.42914277,0.4243395,0.10615342
80,0.040545743,0.40779296,0.42922193,0.122439295
81,0.024850223,0.4500573,0.42972144,0.09537104
82,0.027144566,0.44279847,0.4264943,0.103562675
83,0.027390243,0.45767102,0.41476488,0.10017392
84,0.02693559,0.4289803,0.44546047,0.09862364
85,0.030049404,0.42680442,0.43936574,0.10378046
86,0.03256958,0.4280626,0.43061545,0.108752385
87,0.033935793,0.4408861,0.419781,0.105397
88,0.0379585,0.43516484,0.41532618,0.11155054
89,0.033119123,0.423847,0.43554744,0.10748646
90,0.03596794,0.41129506,0.44036344,0.112373516
91,0.03880556,0.41305545,0.43082,0.11731897
92,0.03787742,0.42590612,0.41705862,0.11915782
93,0.03368249,0.4514093,0.4110916,0.10381662
94,0.036275275,0.45113814,0.4038863,0.10870031
95,0.041046776,0.44012937,0.40190217,0.11692162
96,0.031997714,0.47617692,0.3972572,0.09456816
97,0.03381197,0.47673997,0.39373168,0.09571629
98,0.036886983,0.4835433,0.37971297,0.099856675
99,0.044877358,0.39157137,0.45509145,0.108459815
100,0.038403604,0.41290158,0.45061722,0.098077565
101,0.041395698,0.41512924,0.4407583,0.10271682
102,0.042328887,0.42235175,0.42790267,0.10741671
103,0.023189163,0.45055065,0.44870514,0.07755502
104,0.021071272,0.45638388,0.44259468,0.079950154
105,0.019468624,0.39803556,0.4917345,0.09076132
106,0.018376267,0.41942725,0.47857648,0.08361999
107,0.018377617,0.43336844,0.4661896,0.082064375
108,0.016765486,0.44050628,0.4600509,0.08267733
109,0.018811414,0.35889155,0.53516924,0.087127805
110,0.019084949,0.3623365,0.5268451,0.091733545
111,0.018820196,0.38810968,0.50772,0.08535014
112,0.019136116,0.40058705,0.49943617,0.08084067
113,0.020151136,0.42063522,0.4842186,0.074995026
114,0.02159714,0.4236412,0.4773883,0.07737332
115,0.023313792,0.42748937,0.469943,0.07925393
116,0.027124723,0.4349245,0.45323586,0.084714934
117,0.030275997,0.43279868,0.44704038,0.08988495
118,0.036665678,0.40852973,0.45201176,0.102792785
119,0.036383133,0.38622168,0.48254162,0.09485355
120,0.03295282,0.41453335,0.46101257,0.09150127
121,0.028669823,0.42700994,0.45732638,0.086993836
122,0.028538616,0.43473247,0.45407963,0.08264926
123,0.023590777,0.40636194,0.4976726,0.07237464
124,0.028980142,0.3855648,0.501632,0.0838231
125,0.021663232,0.3688057,0.5373429,0.07218823
126,0.023889033,0.36742494,0.52900267,0.07968339
127,0.024154412,0.37516528,0.5227877,0.07789264
128,0.020118484,0.41419676,0.4956499,0.07003479
129,0.02068169,0.42145026,0.4897364,0.06813157
130,0.021994738,0.4155898,0.49540508,0.06701034
131,0.022170268,0.43198028,0.4772753,0.06857414
132,0.023047233,0.43926758,0.4646428,0.07304249
133,0.024792865,0.44234058,0.45786107,0.075005524
134,0.027225869,0.43620723,0.45686397,0.07970292
135,0.02926082,0.42903635,0.4628339,0.07886894
136,0.033052523,0.42513394,0.45693085,0.084882654
137,0.026681907,0.4579044,0.44089735,0.07451635
138,0.02723914,0.45880345,0.43997753,0.073979944
139,0.03089718,0.4534481,0.43573156,0.07992322
140,0.03088099,0.46792236,0.417935,0.08326164
141,0.035704065,0.44876564,0.41916412,0.09636628
142,0.03936141,0.37264052,0.47388408,0.11411393
143,0.037512213,0.39216223,0.46501622,0.10530929
144,0.03839428,0.3910661,0.4645872,0.10595247
145,0.042577367,0.3894907,0.4561254,0.11180648
146,0.03941481,0.41162705,0.4412063,0.10775187
147,0.044936128,0.38348326,0.45805407,0.11352657
148,0.046016082,0.39198506,0.44368535,0.11831355
149,0.050633382,0.3849109,0.43895736,0.12549831
150,0.05100208,0.40162748,0.4268932,0.12047727
151,0.05385658,0.4154517,0.41022357,0.120468125
152,0.07064456,0.35416025,0.42840216,0.14679304
153,0.07635092,0.3114678,0.4626717,0.1495095
154,0.076393,0.32397717,0.44778243,0.15184748
155,0.07091995,0.34234458,0.43643105,0.15030448
156,0.07998215,0.33915547,0.41934896,0.1615134
157,0.07826016,0.30452076,0.4473055,0.16991366
158,0.083459415,0.30392608,0.4381369,0.17447753
159,0.09483005,0.2625582,0.43888104,0.20373073
160,0.100200884,0.22821504,0.45405427,0.21752982
161,0.107946254,0.2148035,0.4590785,0.21817179
162,0.09855401,0.23441514,0.4593829,0.20764795
163,0.09680101,0.24692343,0.45319775,0.20307776
164,0.08848502,0.21682656,0.48662588,0.20806253
165,0.086417116,0.2297331,0.48032594,0.20352393
166,0.08560789,0.24428524,0.47096974,0.19913715
167,0.09899902,0.22029908,0.45631787,0.22438414
168,0.12222829,0.17560054,0.4517151,0.25045606
169,0.1189197,0.18588893,0.44911698,0.24607441
170,0.119844355,0.18673982,0.44542113,0.24799469
171,0.12487295,0.19041091,0.43532133,0.24939483
172,0.12511678,0.17766438,0.4485262,0.24869269
173,0.12855153,0.17529663,0.45612958,0.24002229
174,0.14294578,0.16453645,0.4371705,0.25534725
175,0.13373703,0.18060382,0.43890268,0.24675652
176,0.13442001,0.15154283,0.44080245,0.27323472
177,0.14923483,0.13360974,0.43215442,0.28500107
178,0.1402773,0.1263334,0.4294047,0.30398458
179,0.14488584,0.13019806,0.4422178,0.28269827
180,0.14702241,0.09832741,0.4486497,0.30600047
181,0.1145913,0.09927516,0.49174228,0.2943913
182,0.110251755,0.11258911,0.4920694,0.28508973
183,0.09846835,0.11669948,0.48372367,0.30110848
184,0.10107843,0.09342335,0.48467585,0.32082233
185,0.10890077,0.09304404,0.46537843,0.33267668
186,0.12846735,0.082451396,0.45093963,0.33814162
187,0.13001648,0.08795343,0.44132432,0.34070575
188,0.116227515,0.07438559,0.46840605,0.3409809
189,0.12768361,0.070654154,0.46545172,0.33621055
190,0.124098174,0.06796967,0.46297607,0.34495604
191,0.13408615,0.06724923,0.44290563,0.35575902
192,0.1244507,0.061583623,0.45674884,0.35721684
193,0.11751899,0.051443376,0.44426927,0.38676837
194,0.13779947,0.044455826,0.41379377,0.40395093
195,0.12104347,0.034502476,0.43320036,0.41125366
196,0.1230021,0.03154342,0.46400243,0.38145208
197,0.12490081,0.02260955,0.4448787,0.40761086
198,0.13420999,0.019943576,0.4556758,0.39017057
199,0.0994063,0.015856093,0.46933144,0.41540614
200,0.09739231,0.013866526,0.49651998,0.3922212
201,0.103863925,0.016263055,0.48906863,0.3908044
202,0.10277003,0.018211678,0.47738525,0.40163305
203,0.10816084,0.016534965,0.49822646,0.3770777
204,0.08651473,0.0144909015,0.5399452,0.3590492
205,0.09984181,0.012964583,0.5464768,0.34071684
206,0.086570114,0.008624478,0.5540477,0.35075772
207,0.080346175,0.0071972706,0.5554059,0.35705066
208,0.06946801,0.006571735,0.57858634,0.3453739
209,0.07333165,0.005249559,0.5899438,0.33147496
210,0.07911234,0.00595842,0.56644356,0.3484856
211,0.06417281,0.004480232,0.6312136,0.30013335
212,0.06338535,0.005178565,0.6247085,0.30672756
213,0.079714306,0.00489641,0.5861608,0.32922843
214,0.06181889,0.0043168184,0.57772803,0.35613626
215,0.06804515,0.004986441,0.55615735,0.37081102
216,0.08100966,0.0048598167,0.5323074,0.38182315
217,0.083490044,0.0044073313,0.5629386,0.3491641
218,0.073752664,0.004178729,0.58030653,0.3417621
219,0.06483461,0.003227994,0.6355277,0.29640976
220,0.07406729,0.003239975,0.58399254,0.33870018
221,0.07687653,0.003393347,0.5901316,0.32959858
222,0.05750521,0.0030043903,0.6573031,0.2821873
223,0.057003174,0.0027267174,0.6396025,0.30066758
224,0.083249725,0.0024178578,0.6285601,0.28577232
225,0.06375133,0.0013115396,0.6723179,0.2626192
226,0.04719179,0.00082031824,0.7304612,0.22152676
227,0.05357123,0.0010591124,0.7143812,0.23098838
228,0.052107923,0.0010362105,0.7244862,0.22236966
229,0.06168518,0.0011873819,0.6973745,0.23975293
230,0.06500181,0.0015843067,0.6862411,0.2471728
231,0.052631985,0.0013182152,0.69913375,0.24691606
232,0.063475154,0.0013320099,0.70715505,0.22803774
233,0.065310225,0.0013624167,0.6937966,0.23953073
234,0.0702696,0.0015139721,0.6916797,0.23653676
235,0.08591281,0.0016175667,0.6620756,0.2503941
236,0.0774445,0.0018122818,0.6688704,0.25187287
237,0.08383317,0.0017957576,0.66165733,0.2527137
238,0.091908254,0.0020705045,0.65426683,0.25175443
239,0.096888974,0.0025107877,0.6405306,0.2600696
240,0.08488722,0.0023245849,0.6514062,0.26138195
241,0.07353596,0.0019891518,0.6627535,0.26172134
242,0.07363909,0.0017145738,0.68695676,0.23768964
243,0.08267785,0.0018112136,0.68630236,0.22920857
244,0.089678764,0.0023670904,0.67140037,0.23655373
245,0.08513038,0.0023213683,0.69274646,0.21980186
246,0.08312099,0.0024352847,0.7184005,0.19604328
247,0.08983075,0.00250104,0.71258605,0.19508211
248,0.11753482,0.0021742159,0.69874865,0.18154238
249,0.106501624,0.0017613143,0.7133664,0.17837073
250,0.117213905,0.0011532173,0.7199091,0.16172382
251,0.14161977,0.0014426387,0.68963903,0.16729847
252,0.13086042,0.0014339504,0.71650565,0.15120004
253,0.11405183,0.0017999591,0.7413494,0.14279884
254,0.105119124,0.0019056522,0.7455184,0.14745681
255,0.10901031,0.0025650298,0.7281637,0.16026087
256,0.10741082,0.0027544084,0.73435134,0.15548344
257,0.10983286,0.0024524624,0.69640917,0.19130543
258,0.10872362,0.0029886537,0.69002646,0.19826132
259,0.18890865,0.0033592298,0.6029319,0.2048002
260,0.17779548,0.0030646813,0.6281689,0.19097097
261,0.18447411,0.003947342,0.6110983,0.20048027
262,0.17929994,0.0037368007,0.6242282,0.19273505
263,0.20417525,0.0040990002,0.5859588,0.20576696
264,0.19362868,0.0036380251,0.5794861,0.22324717
265,0.1643316,0.0030991868,0.60179573,0.23077354
266,0.16578288,0.0032696624,0.5893017,0.2416457
267,0.20094879,0.0038485983,0.54423654,0.2509661
268,0.17031577,0.0038818896,0.5878026,0.23799975
269,0.16124083,0.004344345,0.5767358,0.25767908
270,0.13666674,0.0044151014,0.58011156,0.27880663
271,0.12954418,0.0043291906,0.5949786,0.27114803
272,0.14121036,0.0036875948,0.6165147,0.23858733
273,0.13920487,0.0035645426,0.6274466,0.22978401
274,0.12946185,0.0035545733,0.6453047,0.22167884
275,0.105951205,0.0030400343,0.699357,0.19165178
276,0.091048025,0.0027773308,0.7298618,0.17631291
277,0.14639457,0.0031282934,0.66436374,0.18611336
278,0.13489956,0.002374764,0.7023195,0.16040617
279,0.11484681,0.0021250732,0.725558,0.15747015
280,0.12251752,0.0017431403,0.72497773,0.15076162
281,0.14005716,0.0018098615,0.7171664,0.14096655
282,0.1742384,0.002303535,0.67063963,0.15281843
283,0.17567755,0.0025620542,0.6573957,0.16436467
284,0.14899191,0.002189633,0.67141575,0.17740265
285,0.17042726,0.0027146786,0.64065653,0.18620154
286,0.2037527,0.0027582627,0.6216025,0.17188658
287,0.21200357,0.002692999,0.5992649,0.18603848
288,0.24338445,0.0031613668,0.56650984,0.18694437
289,0.29309586,0.003016014,0.50669193,0.19719623
290,0.30097023,0.0038078646,0.492368,0.2028538
291,0.32637146,0.0045213723,0.45864922,0.21045788
292,0.32255107,0.00425507,0.4572732,0.21592069
293,0.32509413,0.004258928,0.44102293,0.22962399
294,0.3033279,0.0040675458,0.45882928,0.2337753
295,0.2749947,0.0037096268,0.48683205,0.2344636
296,0.29985878,0.004218613,0.45584732,0.24007536
297,0.34703755,0.0044038757,0.4107801,0.23777841
298,0.35678548,0.0047394135,0.3941076,0.24436751
299,0.36415893,0.0045052487,0.3938015,0.2375343
300,0.3553443,0.0048356275,0.39753127,0.24228884
301,0.26521087,0.004214865,0.45092124,0.279653
302,0.25629896,0.0049321903,0.43946868,0.2993002
303,0.26526517,0.00572169,0.4421831,0.28683
304,0.2935554,0.0065797297,0.41398957,0.2858753
305,0.29117712,0.008065778,0.41112936,0.28962767
306,0.27390942,0.008908799,0.43478122,0.28240052
307,0.27710417,0.009585764,0.4121529,0.30115718
308,0.23801601,0.0075236247,0.43339404,0.3210663
309,0.21398252,0.007897059,0.4589894,0.31913105
310,0.21999216,0.00923316,0.4345259,0.3362487
311,0.20629893,0.0102831395,0.45739123,0.32602674
312,0.2069312,0.010566245,0.46287972,0.31962284
313,0.20631967,0.012612391,0.4559082,0.3251597
314,0.22029345,0.0148509815,0.43926042,0.32559514
315,0.18906783,0.016467584,0.44597867,0.34848592
316,0.18199533,0.02038312,0.4584571,0.33916438
317,0.13503486,0.018505145,0.53509724,0.31136277
318,0.12735559,0.018851982,0.5638371,0.28995538
319,0.10007801,0.018185107,0.61236936,0.26936758
320,0.081754476,0.01770913,0.6263841,0.27415234
321,0.08030006,0.018428354,0.62290186,0.2783697
322,0.08049418,0.02220558,0.6294693,0.26783094
323,0.08047629,0.02212864,0.6322084,0.26518673
324,0.07541279,0.021837138,0.63399327,0.2687568
325,0.07272786,0.024887912,0.6170865,0.28529766
326,0.07889645,0.028448684,0.6031208,0.2895341
327,0.076665856,0.027648553,0.6259859,0.26969966
328,0.08004221,0.031861015,0.6095631,0.27853367
329,0.071611755,0.0324747,0.6335911,0.26232243
330,0.06290896,0.034395643,0.6702067,0.23248863
331,0.059091855,0.041866537,0.6834406,0.21560101
332,0.054330885,0.03954792,0.717349,0.18877219
333,0.05645373,0.046299472,0.71288127,0.18436556
334,0.05334753,0.049458425,0.71648675,0.18070725
335,0.05110039,0.051794898,0.7296948,0.16740988
336,0.047727536,0.045722183,0.74482375,0.16172656
337,0.04287806,0.0458513,0.7596072,0.15166353
338,0.04051494,0.047993746,0.7617588,0.14973255
339,0.031807903,0.04640738,0.7884294,0.13335533
340,0.030603996,0.047708526,0.7865538,0.13513373
341,0.033894513,0.054444857,0.7675798,0.14408074
342,0.03496906,0.063391775,0.7596778,0.14196138
343,0.036684893,0.06672245,0.7495518,0.14704087
344,0.03781623,0.074737184,0.7429879,0.14445873
345,0.033627167,0.07789864,0.7441364,0.14433779
346,0.03190875,0.08216328,0.75432205,0.13160592
347,0.022910967,0.07942254,0.79065365,0.10701285
348,0.020759901,0.08315021,0.8023049,0.09378504
349,0.02146078,0.086952806,0.7977861,0.09380023
350,0.020449432,0.09836423,0.79223484,0.08895151
351,0.021740058,0.09746557,0.78623563,0.09455883
352,0.019783553,0.087692924,0.8079539,0.08456966
353,0.02115032,0.10076488,0.7847478,0.093336925
354,0.018609729,0.10210544,0.79644763,0.08283718
355,0.017513817,0.09201444,0.8090266,0.081445165
356,0.018893173,0.09357369,0.80285144,0.084681675
357,0.01920893,0.10751788,0.79127234,0.082000844
358,0.020691834,0.11800334,0.77873296,0.08257186
359,0.019911973,0.11482263,0.78281003,0.08245538
360,0.018465318,0.13129987,0.7765516,0.0736832
361,0.0152817955,0.11670182,0.8045723,0.06344414
362,0.014535277,0.12593918,0.79779404,0.06173155
363,0.014050459,0.12327799,0.80244803,0.06022355
364,0.013269099,0.12247122,0.80800503,0.05625463
365,0.009986353,0.10725273,0.83688426,0.045876686
366,0.010323652,0.12447738,0.8206295,0.04456955
367,0.011040507,0.13908078,0.8049056,0.04497309
368,0.012556395,0.15655078,0.7837579,0.047134925
369,0.012238462,0.14508387,0.79431266,0.04836502
370,0.01384158,0.15720162,0.7773003,0.051656473
371,0.012722402,0.14995089,0.78581256,0.051514104
372,0.013704351,0.14116476,0.79142135,0.053709574
373,0.011948293,0.15917498,0.7830358,0.0458409
374,0.012404307,0.15171136,0.7904149,0.045469426
375,0.012264996,0.14841084,0.79484874,0.04447543
376,0.0114008365,0.15341127,0.7930045,0.042183377
377,0.0137211885,0.16264646,0.7760024,0.04762993
378,0.014881761,0.15929393,0.7754792,0.050345175
379,0.016787259,0.17057426,0.755929,0.056709502
380,0.018158736,0.16632897,0.75568086,0.059831377
381,0.018344196,0.18216929,0.74069595,0.058790617
382,0.016340332,0.18314084,0.74669904,0.053819846
383,0.013408367,0.18412729,0.7544308,0.048033603
384,0.008587605,0.1782427,0.78075165,0.03241802
385,0.00905448,0.16709024,0.78907204,0.03478328
386,0.010691044,0.18129246,0.7683247,0.039691772
387,0.012440381,0.19348234,0.749236,0.044841312
388,0.01360788,0.20514746,0.73501337,0.04623137
389,0.014232003,0.22115226,0.7189356,0.04568011
390,0.013907869,0.24531157,0.6955905,0.045190074
391,0.012821147,0.24880607,0.69746757,0.04090518
392,0.012524864,0.26181978,0.6878274,0.037828036
393,0.010337939,0.20806108,0.7484184,0.03318252
394,0.007310601,0.16854326,0.7965761,0.02757005
395,0.008759148,0.18165292,0.77791524,0.031672705
396,0.007867907,0.19036116,0.77004457,0.031726427
397,0.009151562,0.20271069,0.75324875,0.034889016
398,0.009045358,0.20241493,0.75185645,0.036683343
399,0.009653279,0.21898422,0.73431134,0.037051175
400,0.008160761,0.24365884,0.7169166,0.031263724
401,0.0074787545,0.24949662,0.71249825,0.030526405
402,0.008799421,0.2509378,0.7048602,0.03540263
403,0.009554329,0.25264135,0.6982828,0.03952157
404,0.008410614,0.22696382,0.7296645,0.034961075
405,0.010241841,0.23534107,0.7147023,0.039714828
406,0.009227374,0.23279873,0.7211582,0.03681566
407,0.011033474,0.24264517,0.70476747,0.04155392
408,0.007010226,0.20154954,0.7588882,0.032552015
409,0.004861164,0.20236157,0.7658534,0.026923867
410,0.0041855937,0.23159367,0.73840183,0.025818985
411,0.0048710285,0.22368449,0.74298584,0.028458647
412,0.005368902,0.21488842,0.7503945,0.02934818
413,0.005406417,0.2259519,0.73874277,0.02989896
414,0.005167218,0.24539217,0.7191069,0.03033372
415,0.006446896,0.25361288,0.7052247,0.034715593
416,0.007083148,0.24853915,0.7073722,0.03700546
417,0.0060080434,0.24274887,0.7148466,0.036396448
418,0.005600603,0.26030868,0.6962509,0.03783985
419,0.0044541247,0.28990552,0.67178226,0.033858173
420,0.0042466433,0.28964117,0.670205,0.035907194
421,0.005335583,0.2961725,0.6578389,0.040653042
422,0.0046753455,0.28634363,0.6666562,0.042324822
423,0.0044513713,0.2817243,0.6725564,0.041267965
424,0.0055772634,0.28832638,0.6597127,0.046383683
425,0.00622437,0.27624306,0.6706683,0.046864264
426,0.0055895364,0.29069915,0.6558055,0.047905732
427,0.005260822,0.31810555,0.6320191,0.04461456
428,0.0046992977,0.32712358,0.623897,0.04428009
429,0.0049223914,0.3400497,0.610771,0.044256933
430,0.005472647,0.35204166,0.5954836,0.047002114
431,0.005470589,0.3272154,0.61440885,0.0529051
432,0.004464298,0.30550376,0.639763,0.050268997
433,0.003925204,0.33629125,0.6097408,0.05004276
434,0.0024343876,0.3772537,0.5805642,0.039747745
435,0.002570057,0.39297867,0.56024426,0.04420703
436,0.0023971992,0.3807517,0.5701172,0.04673399
437,0.0024064295,0.38948327,0.5613165,0.04679376
438,0.0030969607,0.39110428,0.5536933,0.05210545
439,0.0035967992,0.40132666,0.54062885,0.054447725
440,0.004392786,0.4128865,0.5219352,0.060785484
441,0.004348315,0.4102691,0.5253239,0.060058706
442,0.0039300895,0.3920108,0.54277563,0.061283536
443,0.0033396017,0.42131925,0.51674944,0.058591716
444,0.0035661866,0.44838867,0.49277225,0.055272963
445,0.0034588883,0.44531694,0.49400285,0.057221368
446,0.00295274,0.45440057,0.4900648,0.052581858
447,0.0032887098,0.422764,0.5151792,0.05876813
448,0.0031395142,0.4051088,0.5346023,0.05714936
449,0.0027550736,0.40197662,0.5333266,0.061941724
450,0.002335316,0.42417252,0.51621515,0.057276968
451,0.0024661308,0.41518834,0.5160408,0.066304706
452,0.0025645772,0.4364967,0.49446112,0.06647755
453,0.0026495392,0.4341175,0.4970161,0.06621682
454,0.0031672262,0.4015467,0.52635145,0.068934664
455,0.0030021633,0.37868953,0.54814816,0.07016015
456,0.0025633327,0.41299227,0.5231024,0.061341926
457,0.0021070756,0.4429628,0.5029296,0.052000523
458,0.0024562026,0.4033346,0.5356405,0.058568683
459,0.0026639686,0.41450763,0.5239314,0.058897074
460,0.0027236731,0.36894557,0.56489724,0.06343344
461,0.0027216366,0.31386888,0.6226052,0.06080422
462,0.0034820228,0.31854528,0.61111873,0.06685396
463,0.0037706685,0.31178135,0.60971636,0.074731655
464,0.0047399653,0.3159922,0.5980614,0.08120649
465,0.0054682014,0.3404894,0.57477933,0.079263136
466,0.0061751124,0.26789194,0.6514399,0.07449307
467,0.0057684095,0.24140985,0.6699889,0.082832806
468,0.006863756,0.22476669,0.6828962,0.08547338
469,0.0069138594,0.17281201,0.73736376,0.082910314
470,0.00963416,0.13648325,0.77033573,0.08354683
471,0.011000466,0.12645827,0.77422863,0.08831259
472,0.013079697,0.09527971,0.8114904,0.08015012
473,0.011035667,0.04529928,0.876782,0.06688312
474,0.011317326,0.02735316,0.90258723,0.058742262
475,0.012584785,0.01921356,0.9157967,0.0524049
476,0.0085006105,0.011102821,0.93765104,0.042745505
477,0.010523949,0.008949998,0.9392291,0.041296944
478,0.013452797,0.009611411,0.93399274,0.04294305
479,0.0135337915,0.0051470473,0.94245857,0.038860608
480,0.014322965,0.0037339607,0.9475122,0.034430847
481,0.01417235,0.00290483,0.9474351,0.035487704
482,0.016506441,0.0019108357,0.9517685,0.02981426
483,0.012969214,0.0012583901,0.9582239,0.02754858
484,0.016921671,0.0011683025,0.9546004,0.027309595
485,0.015335578,0.00096003246,0.9589221,0.024782382
486,0.020373732,0.00073866406,0.95662695,0.022260768
487,0.022073235,0.0008405578,0.95238465,0.024701498
488,0.021835787,0.00054720003,0.955091,0.022526018
489,0.02280156,0.0005312508,0.9550826,0.021584624
490,0.025993545,0.0004405199,0.949714,0.023852013
491,0.016170243,0.00024205243,0.96303856,0.020549221
492,0.021102112,0.00024740165,0.9586526,0.019997945
493,0.018811984,0.00021494493,0.9629449,0.018028226
494,0.022945832,0.0001893518,0.95896536,0.017899556
495,0.024989324,0.00017942495,0.9564259,0.018405339
496,0.028868074,0.00019628968,0.95061725,0.020318352
497,0.024809394,8.7764114e-05,0.9560034,0.019099446
498,0.0338829,0.00011331315,0.94295716,0.023046734
499,0.036312312,0.00012832324,0.9403303,0.023229005
500,0.03381204,9.1858914e-05,0.9475324,0.018563641
501,0.02864009,7.642751e-05,0.95249575,0.01878773
502,0.027847605,8.421233e-05,0.95050526,0.021562919
503,0.032131743,7.130118e-05,0.9475539,0.02024312
504,0.037852734,0.00010338618,0.9375379,0.024506014
505,0.03435793,7.903175e-05,0.94513434,0.020428656
506,0.036807965,6.171507e-05,0.945738,0.01739225
507,0.029803662,4.7311692e-05,0.9525814,0.01756768
508,0.027596187,5.2922667e-05,0.95315796,0.019192876
509,0.03113862,7.086295e-05,0.94443357,0.024356883
510,0.042433448,0.0001078077,0.92892987,0.028528811
511,0.032261737,7.678161e-05,0.9421864,0.025474994
512,0.046464965,9.100521e-05,0.9239622,0.02948188
513,0.043746598,0.0001013153,0.92317206,0.032979965
514,0.036500014,6.5414504e-05,0.93492293,0.028511634
515,0.039968424,8.020896e-05,0.925639,0.034312345
516,0.04040878,0.00010157622,0.9165138,0.042975742
517,0.03893454,0.00011058599,0.91796076,0.042994145
518,0.037309796,0.00012550187,0.9155691,0.046995606
519,0.043555498,0.0001866374,0.8986084,0.057649475
520,0.032835785,0.00024101355,0.9130021,0.05392114
521,0.036501203,0.00035323025,0.9010392,0.062106423
522,0.039877523,0.00052952865,0.8907804,0.06881261
523,0.04675133,0.00066507864,0.8784889,0.074094616
524,0.046409227,0.0007839656,0.87403154,0.078775145
525,0.033960868,0.0008438009,0.8819415,0.08325383
526,0.039174348,0.0011723143,0.86773986,0.0919134
527,0.034397926,0.0013150119,0.8713572,0.092929825
528,0.042036604,0.0016009159,0.85410815,0.102254294
529,0.041427437,0.0020337168,0.8505672,0.10597156
530,0.040641986,0.0026925253,0.83898604,0.117679454
531,0.037190992,0.0036611133,0.8303871,0.12876078
532,0.039500732,0.004349305,0.8163196,0.13983034
533,0.037156433,0.004457176,0.822897,0.13548942
534,0.034135334,0.005722618,0.8280054,0.13213664
535,0.034298174,0.006053654,0.8235148,0.13613333
536,0.038898226,0.0062674438,0.8122867,0.14254762
537,0.047824454,0.007110329,0.7717188,0.1733464
538,0.042294823,0.008347472,0.757093,0.19226469
539,0.051893737,0.010452355,0.7415995,0.19605443
540,0.046501458,0.012418796,0.7416529,0.19942684
541,0.044842776,0.014880083,0.7280079,0.21226925
542,0.050228387,0.01758862,0.7117845,0.22039847
543,0.049372748,0.018820282,0.71739453,0.21441245
544,0.054963127,0.021960486,0.7008863,0.22219007
545,0.06076477,0.025389694,0.6843824,0.22946317
546,0.066740975,0.029099477,0.66794574,0.23621377
547,0.07046604,0.025998484,0.6374272,0.2661083
548,0.06282589,0.026717601,0.64275366,0.26770288
549,0.059300866,0.030631224,0.6310772,0.27899072
550,0.043967627,0.0383953,0.6562649,0.2613721
551,0.03939251,0.03972894,0.63946515,0.2814134
552,0.031943277,0.037491344,0.6499545,0.28061083
553,0.029885994,0.043045014,0.6602269,0.26684213
554,0.033169486,0.049400643,0.6463019,0.27112797
555,0.024197876,0.04242902,0.68209493,0.25127813
556,0.023882046,0.047466964,0.66647524,0.2621758
557,0.019679856,0.057617202,0.6517275,0.27097547
558,0.021031529,0.057039253,0.650014,0.2719152
559,0.018650522,0.06119597,0.6601212,0.2600323
560,0.014040148,0.05382734,0.6879726,0.24415992
561,0.016240528,0.050566975,0.67952347,0.253669
562,0.019673306,0.05571208,0.656019,0.2685956
563,0.023255304,0.055269215,0.6616345,0.25984097
564,0.017067272,0.042864956,0.7343324,0.20573534
565,0.015665442,0.046696827,0.73040086,0.20723683
566,0.013899667,0.04181228,0.75727147,0.18701665
567,0.01703554,0.047901116,0.71503896,0.22002447
568,0.020701742,0.04714532,0.7078723,0.22428067
569,0.019189881,0.038633976,0.7046877,0.23748842
570,0.021787208,0.03782676,0.7220404,0.21834558
571,0.022560386,0.045324255,0.71458477,0.21753052
572,0.021247542,0.045500647,0.7194197,0.21383214
573,0.022409525,0.051396284,0.70055324,0.22564094
574,0.016210528,0.04813188,0.7245954,0.21106221
575,0.018044163,0.05113512,0.69032896,0.24049173
576,0.01757278,0.060850173,0.67864925,0.24292777
577,0.0206921,0.038966574,0.73265934,0.20768203
578,0.019134829,0.036649425,0.71454364,0.22967212
579,0.023075001,0.041160733,0.69054246,0.24522185
580,0.027971162,0.046096124,0.6649844,0.2609483
581,0.022551967,0.039232373,0.72202885,0.21618673
582,0.017409379,0.041087277,0.70056164,0.24094166
583,0.013001244,0.03806108,0.67957366,0.26936406
584,0.017296609,0.04070521,0.6412649,0.3007333
585,0.015642228,0.03937024,0.62497807,0.3200095
586,0.01619368,0.04307548,0.6278014,0.31292933
587,0.02028083,0.042723004,0.625196,0.31180024
588,0.026371712,0.035871424,0.6272988,0.31045803
589,0.035145696,0.03970818,0.61010784,0.31503832
590,0.03825207,0.039462015,0.6097932,0.3124928
591,0.037523117,0.03931467,0.6156284,0.30753374
592,0.030801045,0.035812393,0.5965941,0.33679253
593,0.03164827,0.03587662,0.6028692,0.32960588
594,0.04187663,0.03531591,0.589817,0.33299056
595,0.036385037,0.034395635,0.5821521,0.34706724
596,0.037080538,0.02812403,0.5884942,0.34630123
597,0.054314885,0.020425541,0.6278589,0.29740077
598,0.06458448,0.023396675,0.5995811,0.31243774
599,0.06234979,0.026025675,0.6065717,0.30505285
600,0.067050286,0.030790303,0.5886484,0.31351095
601,0.061075956,0.034466535,0.5895843,0.31487325
602,0.061484512,0.038542926,0.573701,0.32627153
603,0.066501416,0.041180927,0.5904189,0.30189872
604,0.059414078,0.036478724,0.58074075,0.32336643
605,0.060135458,0.03965344,0.571983,0.3282281
606,0.060329385,0.03860844,0.54454935,0.3565128
607,0.06516529,0.035493266,0.5033572,0.3959843
608,0.059406314,0.036772475,0.48266375,0.42115748
609,0.07090032,0.042359907,0.4779546,0.4087852
610,0.08312238,0.04700299,0.46908438,0.4007903
611,0.08587563,0.04015487,0.4878432,0.38612634
612,0.071017854,0.045364905,0.5069668,0.3766504
613,0.072305,0.054501206,0.5034812,0.36971256
614,0.0928024,0.054049384,0.45630178,0.39684644
615,0.1159222,0.058412377,0.4254077,0.40025765
616,0.09874556,0.058612604,0.44127783,0.401364
617,0.09308885,0.057092592,0.45425406,0.39556453
618,0.0903735,0.05025399,0.45747083,0.4019017
619,0.09176581,0.05325922,0.45694903,0.3980259
620,0.09374689,0.05085742,0.46010637,0.3952892
621,0.09513749,0.050121244,0.4536363,0.40110496
622,0.10654892,0.043802425,0.4816589,0.3679898
623,0.10934383,0.048064068,0.46398476,0.3786074
624,0.13859786,0.050335813,0.4370355,0.37403077
625,0.1534662,0.053879187,0.4156965,0.37695813
626,0.1669641,0.047237173,0.439577,0.3462217
627,0.1391824,0.042736884,0.44769338,0.37038738
628,0.21034645,0.03743885,0.40267107,0.34954366
629,0.2181546,0.036630504,0.3623159,0.38289902
630,0.25895616,0.031976905,0.3313217,0.37774515
631,0.20612808,0.036710143,0.3665028,0.39065903
632,0.18018234,0.039185807,0.37671927,0.40391257
633,0.17515565,0.041555773,0.37303886,0.41024974
634,0.14305985,0.038487747,0.36793846,0.45051396
635,0.12357512,0.04184225,0.37927464,0.455308
636,0.14867494,0.04170299,0.34720287,0.4624192
637,0.134565,0.033865854,0.352655,0.47891417
638,0.16421534,0.03554786,0.33171937,0.46851745
639,0.1607574,0.03347192,0.32747275,0.47829786
640,0.14664516,0.033453774,0.3157861,0.504115
641,0.16787945,0.026853709,0.3534401,0.45182663
642,0.1908943,0.029378418,0.33207595,0.4476514
643,0.15587005,0.027927743,0.35466972,0.4615325
644,0.17361197,0.027389672,0.34590164,0.45309666
645,0.17902626,0.028159183,0.34625825,0.44655627
646,0.2001493,0.02324559,0.34068128,0.43592384
647,0.20844561,0.021052297,0.37462142,0.39588073
648,0.20981283,0.018547185,0.395059,0.37658095
649,0.24919699,0.017261062,0.36219758,0.37134442
650,0.2909956,0.017258104,0.3356936,0.35605267
651,0.2885173,0.013067918,0.3468911,0.35152376
652,0.28666824,0.014650495,0.34055614,0.35812518
653,0.29636028,0.016961364,0.33144036,0.355238
654,0.37246442,0.016928962,0.28013554,0.33047104
655,0.38004455,0.019307204,0.28159556,0.31905264
656,0.30489534,0.020943925,0.31971946,0.3544413
657,0.29509392,0.023171991,0.31072098,0.37101308
658,0.33303544,0.017828586,0.26771504,0.38142097
659,0.3469784,0.018706797,0.24367863,0.39063615
660,0.3561313,0.021305846,0.24122165,0.38134125
661,0.32306227,0.021398747,0.2805037,0.37503538
662,0.32289132,0.023082694,0.27905193,0.37497404
663,0.30982378,0.023939328,0.27417824,0.39205867
664,0.31650287,0.024466176,0.2821709,0.37686
665,0.27920806,0.025855688,0.27946502,0.4154712
666,0.3019571,0.020317668,0.26590067,0.41182458
667,0.32050177,0.019929588,0.24343063,0.41613808
668,0.3064979,0.023617906,0.24825177,0.4216324
669,0.34580258,0.020361606,0.22783083,0.406005
670,0.34424144,0.02327266,0.23146583,0.40102005
671,0.34350336,0.026423223,0.23505104,0.39502245
672,0.35744798,0.020743668,0.2595701,0.36223826
673,0.36578524,0.020069646,0.24775453,0.36639068
674,0.35566908,0.016743371,0.2735108,0.35407677
675,0.3240615,0.015291153,0.2633165,0.3973308
676,0.4307703,0.012670189,0.21705262,0.33950695
677,0.4473437,0.013533438,0.20198216,0.3371407
678,0.4406504,0.015811305,0.20682865,0.33670965
679,0.4635363,0.016314661,0.19421588,0.3259332
680,0.3767588,0.015681248,0.2116301,0.39592978
681,0.3827913,0.017489335,0.20555852,0.39416078
682,0.42363054,0.018386794,0.19345963,0.3645231
683,0.4634376,0.015138052,0.16893655,0.35248774
684,0.47146568,0.015211872,0.15765005,0.3556724
685,0.4663203,0.017186856,0.15378495,0.36270788
686,0.49422458,0.013378186,0.14163981,0.35075748
687,0.5221002,0.013212741,0.12757558,0.33711147
688,0.43338484,0.015035891,0.16027425,0.39130503
689,0.37709415,0.018912686,0.17595923,0.4280339
690,0.35680163,0.016725719,0.18714547,0.43932712
691,0.3468484,0.014338103,0.17080203,0.46801138
692,0.32232094,0.016664112,0.1732994,0.48771554
693,0.3173368,0.01780481,0.17968467,0.48517367
694,0.34092453,0.014547413,0.17213038,0.47239766
695,0.40282756,0.013589518,0.15607716,0.42750573
696,0.36708367,0.013656151,0.15654507,0.46271512
697,0.35037953,0.012757251,0.169839,0.4670243
698,0.34876326,0.012940734,0.17751156,0.46078452
699,0.3373379,0.015480599,0.18305835,0.46412313
700,0.32472926,0.012714481,0.16514418,0.4974121
701,0.35870838,0.012672163,0.15130222,0.47731724
702,0.3104555,0.013399623,0.15661868,0.5195261
703,0.3180881,0.012464411,0.15550286,0.5139447
704,0.3538551,0.010711877,0.1470359,0.48839703
705,0.38107213,0.01268917,0.15662265,0.44961604
706,0.4655311,0.012245434,0.13204603,0.3901774
707,0.4616225,0.013238066,0.14596334,0.37917614
708,0.47968903,0.0121858185,0.13499977,0.37312537
709,0.43157002,0.011545219,0.17101678,0.38586792
710,0.4078996,0.012075773,0.17001748,0.41000718
711,0.4227267,0.01243149,0.17623311,0.38860866
712,0.34844095,0.014196575,0.20811683,0.42924562
713,0.3898856,0.012926393,0.17134532,0.42584264
714,0.37629613,0.014543208,0.18193452,0.42722616
715,0.35627615,0.015002959,0.18563107,0.4430898
716,0.41353497,0.013995689,0.16547392,0.4069955
717,0.37867072,0.015284886,0.17649496,0.42954937
718,0.3700771,0.015812427,0.19004357,0.4240669
719,0.36666203,0.01696374,0.19701444,0.41935977
720,0.4057206,0.01356423,0.16637504,0.4143402
721,0.40143785,0.01345661,0.17184427,0.41326132
722,0.41395873,0.014769811,0.1667879,0.40448356
723,0.46412498,0.0152353225,0.15084758,0.369792
724,0.46037537,0.017221585,0.15032804,0.37207496
725,0.45181993,0.018210445,0.15647976,0.37348986
726,0.42766187,0.021578196,0.16601731,0.38474274
727,0.46642122,0.019145073,0.15806776,0.35636598
728,0.502915,0.017188132,0.13257661,0.3473202
729,0.39191577,0.017665923,0.15973212,0.43068612
730,0.42330632,0.014752772,0.15462777,0.40731314
731,0.4236433,0.017006215,0.15800583,0.40134475
732,0.4457269,0.018000439,0.1513859,0.38488674
733,0.41380575,0.02046439,0.17468618,0.3910437
734,0.41268393,0.022718623,0.17373386,0.39086366
735,0.45452082,0.020724202,0.15507595,0.36967903
736,0.47098243,0.01805809,0.14288677,0.36807266
737,0.49519464,0.016884614,0.12675513,0.36116558
738,0.5224521,0.0140902335,0.10961941,0.35383826
739,0.42843089,0.017862305,0.15041608,0.40329078
740,0.3695373,0.019719547,0.17519392,0.43554926
741,0.3511862,0.024144456,0.18808664,0.43658277
742,0.30328488,0.026745787,0.20162262,0.4683467
743,0.31846383,0.02939298,0.21435218,0.43779105
744,0.31373346,0.033187896,0.22975676,0.42332187
745,0.2932222,0.023939284,0.20297275,0.47986576
746,0.28944448,0.026558876,0.19509427,0.48890242
747,0.28649038,0.031090211,0.20192379,0.48049563
748,0.3163649,0.025189301,0.20798485,0.45046094
749,0.33853716,0.028753892,0.20875724,0.42395172
750,0.33427703,0.029382706,0.22533587,0.4110044
751,0.25574806,0.029666994,0.28377336,0.43081158
752,0.3144352,0.028923094,0.25259787,0.40404385
753,0.34322158,0.03045956,0.2359954,0.39032352
754,0.35113946,0.029576091,0.23900658,0.3802779
755,0.30181712,0.026121637,0.23988585,0.43217537
756,0.30068368,0.026080905,0.2301794,0.44305605
757,0.287107,0.023711339,0.2563118,0.43286988
758,0.19273655,0.028552178,0.32597065,0.45274067
759,0.15225093,0.029144857,0.32182178,0.4967824
760,0.12612218,0.030640658,0.35743707,0.48580012
761,0.1481162,0.03048099,0.36895496,0.45244786
762,0.1296972,0.026851108,0.36104965,0.482402
763,0.13586333,0.030373674,0.35979044,0.47397262
764,0.1366684,0.031748552,0.37798333,0.45359975
765,0.14262111,0.035576485,0.3753509,0.44645151
766,0.13276157,0.03534536,0.40644616,0.425447
767,0.14003576,0.040156517,0.39688227,0.42292544
768,0.15385701,0.040230095,0.41713208,0.3887808
769,0.118601784,0.038042963,0.41723865,0.42611665
770,0.116230756,0.033695836,0.43593654,0.41413695
771,0.13786407,0.0320307,0.42769116,0.402414
772,0.12050435,0.036489297,0.47089222,0.37211412
773,0.1225807,0.03439252,0.48598763,0.35703915
774,0.07959308,0.033104137,0.53005,0.35725275
775,0.09160651,0.03582836,0.52539366,0.34717143
776,0.07522944,0.032460745,0.5294901,0.3628196
777,0.07599019,0.033750366,0.53637546,0.35388392
778,0.08928888,0.031653415,0.51546067,0.36359704
779,0.089286104,0.02812108,0.5233438,0.35924897
780,0.110586055,0.028888898,0.51985365,0.3406714
781,0.10159205,0.030752867,0.51031506,0.35734007
782,0.0940791,0.028216425,0.5090083,0.36869615
783,0.10502062,0.025438985,0.48694533,0.38259506
784,0.08444311,0.032051798,0.4929698,0.39053532
785,0.09218554,0.035095446,0.46927795,0.4034411
786,0.089596026,0.034920223,0.45487696,0.42060673
787,0.08231129,0.035706215,0.4654216,0.41656098
788,0.09095367,0.03179653,0.45303226,0.42421755
789,0.09561702,0.029497033,0.44114298,0.43374294
790,0.09047035,0.025342952,0.47070843,0.4134782
791,0.06441584,0.022715943,0.4785847,0.43428352
792,0.068686694,0.023539376,0.462588,0.44518596
793,0.06752821,0.022827387,0.49826536,0.41137907
794,0.06294955,0.02601257,0.50924724,0.40179068
795,0.06583524,0.027812181,0.5283873,0.37796527
796,0.06766863,0.027596062,0.5357647,0.36897066
797,0.07351273,0.03132014,0.5261589,0.36900815
798,0.079083614,0.03310317,0.4803915,0.40742174
799,0.072145335,0.036349162,0.4956987,0.39580682
800,0.06973989,0.04061754,0.46913666,0.42050594
801,0.06577181,0.04242395,0.49474072,0.39706346
802,0.071596384,0.047252133,0.4797831,0.40136844
803,0.056087136,0.04567635,0.48436126,0.41387522
804,0.048124734,0.041455127,0.5133836,0.39703652
805,0.046059277,0.044399064,0.532474,0.37706766
806,0.049018335,0.049854595,0.5188118,0.38231528
807,0.057799444,0.054168034,0.49628007,0.39175242
808,0.048818234,0.042707272,0.5040842,0.40439022
809,0.049595546,0.03886013,0.47530302,0.4362413
810,0.040191304,0.04310497,0.49172896,0.42497477
811,0.04397879,0.043030027,0.48922214,0.4237691
812,0.05067152,0.047036238,0.46604496,0.4362472
813,0.04755529,0.046801582,0.47190252,0.43374056
814,0.039574984,0.04285521,0.51893765,0.39863223
815,0.0352779,0.036583874,0.5178798,0.41025847
816,0.02962198,0.045111813,0.52777666,0.39748952
817,0.03357367,0.042050757,0.47166914,0.4527065
818,0.04506648,0.04897762,0.462116,0.44383988
819,0.044505473,0.05325536,0.4731878,0.42905143
820,0.036888212,0.04986692,0.46393946,0.44930547
821,0.039798383,0.044283643,0.43831336,0.47760454
822,0.044376124,0.04912076,0.43475536,0.47174776
823,0.04467247,0.051133752,0.40578073,0.4984131
824,0.04576245,0.046917107,0.4214388,0.4858816
825,0.032877352,0.049635246,0.44408745,0.4734
826,0.03252379,0.046780575,0.45972592,0.46096966
827,0.041869,0.041290753,0.4409697,0.47587055
828,0.05440729,0.036952868,0.41636556,0.49227422
829,0.05964546,0.036184408,0.448901,0.45526913
830,0.041724056,0.023233186,0.5158527,0.41919002
831,0.04114811,0.022587227,0.5206768,0.4155879
832,0.04961897,0.025910426,0.50559056,0.4188801
833,0.048684653,0.024050958,0.55240065,0.37486377
834,0.04745101,0.024532208,0.53495044,0.39306632
835,0.04941889,0.028983181,0.53006154,0.39153638
836,0.047655866,0.035985332,0.53772354,0.37863517
837,0.04607172,0.031076124,0.56228316,0.36056897
838,0.048051056,0.03283342,0.5493457,0.36976987
839,0.04720373,0.03632669,0.5565923,0.35987726
840,0.05067367,0.031013275,0.6048374,0.31347567
841,0.053388353,0.0317726,0.603947,0.31089208
842,0.058809962,0.035896458,0.59103304,0.3142606
843,0.060265932,0.040264197,0.5673285,0.33214137
844,0.07289552,0.040693726,0.54737455,0.33903623
845,0.07835829,0.03310623,0.5327828,0.35575268
846,0.08072949,0.037603352,0.51820767,0.36345956
847,0.108060926,0.03786023,0.46340984,0.39066905
848,0.12199262,0.029967789,0.4975577,0.35048187
849,0.14397413,0.031663563,0.46753326,0.35682905
850,0.12775151,0.028614227,0.48309058,0.3605437
851,0.11805401,0.029933913,0.50512856,0.3468835
852,0.10794939,0.034095876,0.5013304,0.35662434
853,0.11506248,0.03757168,0.46425086,0.38311502
854,0.12981613,0.03879764,0.42111298,0.41027316
855,0.13797046,0.043280136,0.40469837,0.41405106
856,0.13812092,0.04729451,0.41490027,0.39968434
857,0.10694183,0.04078662,0.40940523,0.44286627
858,0.10060254,0.040509637,0.42373937,0.4351484
859,0.111685865,0.041701674,0.4103834,0.43622905
860,0.1309133,0.04226078,0.37364975,0.45317617
861,0.127398,0.04509391,0.37692073,0.45058745
862,0.13831943,0.04705999,0.35943514,0.4551855
863,0.13384297,0.047896672,0.34309655,0.4751639
864,0.1278887,0.041636948,0.31839257,0.5120818
865,0.12181616,0.039300762,0.34365982,0.49522328
866,0.119231485,0.042908948,0.3220316,0.51582795
867,0.10493547,0.036102146,0.35842103,0.5005414
868,0.102274135,0.028302668,0.40777826,0.46164498
869,0.13339068,0.024712553,0.4134162,0.4284806
870,0.13400915,0.027735714,0.4000049,0.4382502
871,0.11306505,0.028330838,0.40935954,0.44924456
872,0.11533215,0.025202854,0.3857467,0.47371835
873,0.12092545,0.024615454,0.4048225,0.44963652
874,0.1162892,0.024487404,0.36696318,0.4922602
875,0.118048474,0.022322666,0.40185073,0.4577781
876,0.12172752,0.022909423,0.41676316,0.43859988
877,0.102139056,0.0218758,0.4133236,0.46266153
878,0.11511724,0.024638226,0.39989007,0.46035448
879,0.129571,0.024046235,0.39938375,0.44699907
880,0.13490784,0.021375095,0.42383873,0.4198783
881,0.15775383,0.023351992,0.38443276,0.43446147
882,0.12032699,0.019329008,0.39482638,0.46551767
883,0.13204922,0.018741008,0.38508153,0.46412823
884,0.14713192,0.01626166,0.355201,0.48140544
885,0.17977497,0.017730717,0.3332695,0.4692248
886,0.16950239,0.017287144,0.36506358,0.44814694
887,0.18839025,0.01982245,0.35910207,0.4326853
888,0.19085027,0.020970663,0.330218,0.45796105
889,0.22438125,0.017373096,0.27601412,0.48223156
890,0.22228509,0.018437056,0.26324013,0.49603766
891,0.21697149,0.017688727,0.25335622,0.5119836
892,0.18579084,0.02091112,0.27628216,0.5170159
893,0.15833248,0.019575974,0.28502792,0.53706366
894,0.15939637,0.020868506,0.29833347,0.5214017
895,0.17804532,0.022291597,0.2800961,0.519567
896,0.17969191,0.025101386,0.27511096,0.5200957
897,0.20478274,0.02647591,0.25171888,0.5170225
898,0.2170803,0.021380102,0.2196285,0.54191107
899,0.22178592,0.024458218,0.22426163,0.5294942
900,0.2000973,0.023114407,0.24476749,0.5320208
901,0.18848468,0.019082371,0.2686165,0.5238165
902,0.21545011,0.021808608,0.25530866,0.50743264
903,0.23063038,0.02040509,0.28188735,0.46707717
904,0.21589576,0.01890998,0.3033344,0.4618599
905,0.23960745,0.018284746,0.28745508,0.45465276
906,0.24872427,0.017042587,0.3238887,0.41034442
907,0.2711214,0.0147119295,0.34202266,0.37214395
908,0.2507577,0.012470881,0.36609483,0.37067664
909,0.27738515,0.013146895,0.34779152,0.36167645
910,0.2179736,0.010325849,0.4185979,0.3531027
911,0.2148059,0.008948202,0.44394466,0.3323012
912,0.18567272,0.008910873,0.4560055,0.34941086
913,0.20665483,0.010317701,0.4314002,0.3516273
914,0.21816899,0.011047223,0.4317974,0.3389864
915,0.24446654,0.012559429,0.4134478,0.32952616
916,0.28950325,0.013640506,0.37868318,0.31817308
917,0.2797543,0.012645677,0.41266167,0.29493836
918,0.2697854,0.009820196,0.4612769,0.25911757
919,0.31510717,0.009942261,0.4394484,0.23550224
920,0.32511225,0.009543313,0.44176424,0.22358023
921,0.359363,0.008598498,0.398284,0.23375449
922,0.343171,0.009092273,0.4193144,0.22842228
923,0.36882228,0.007987833,0.410715,0.2124749
924,0.4241194,0.006164307,0.37826312,0.1914532
925,0.4733223,0.005647077,0.33787656,0.18315403
926,0.4355132,0.0040138536,0.39393032,0.16654254
927,0.40939602,0.0024915708,0.45036092,0.13775155
928,0.421966,0.0019893947,0.45981684,0.11622778
929,0.382927,0.002323164,0.48924932,0.12550053
930,0.35233864,0.0027898657,0.51616144,0.12871
931,0.38240585,0.0023961577,0.48624572,0.12895237
932,0.3545629,0.0021035196,0.5043484,0.13898516
933,0.37805527,0.0019998376,0.48596942,0.13397548
934,0.35827762,0.0017361231,0.49897838,0.14100789
935,0.31017393,0.0009667801,0.56033444,0.12852475
936,0.32290858,0.00094045914,0.542695,0.13345604
937,0.32393664,0.000936634,0.5384498,0.13667694
938,0.32197055,0.00086521043,0.5418665,0.1352978
939,0.31533465,0.0010080455,0.54842407,0.13523324
940,0.3191586,0.0013530317,0.5357679,0.14372048
941,0.3549635,0.0009923861,0.52145404,0.12259005
942,0.3334009,0.0011643298,0.5201235,0.1453113
943,0.33529338,0.0012472456,0.51673067,0.1467287
944,0.360828,0.0011354025,0.49788746,0.14014913
945,0.30762085,0.0011411818,0.54848474,0.14275317
946,0.21560727,0.00059874443,0.6755123,0.10828167
947,0.22963239,0.00054875156,0.66385305,0.10596578
948,0.2350133,0.0006543359,0.65727013,0.107062265
949,0.2146356,0.00061108853,0.67831165,0.10644173
950,0.21975935,0.0008023822,0.6621564,0.11728181
951,0.2399611,0.00063275034,0.64925265,0.11015354
952,0.2618245,0.00072388834,0.61884457,0.11860711
953,0.2371184,0.0004535142,0.6591904,0.103237666
954,0.19401227,0.00031825047,0.71521086,0.0904586
955,0.2019741,0.0003640201,0.70483404,0.09282783
956,0.183339,0.00034800946,0.7254078,0.09090525
957,0.18305472,0.00042327397,0.7171516,0.09937044
958,0.17128634,0.00042278983,0.7223752,0.10591573
959,0.16806248,0.00047544463,0.7193444,0.11211766
960,0.16537766,0.00041782757,0.72632104,0.10788351
961,0.17045212,0.0003064692,0.72460026,0.10464116
962,0.15559629,0.00034931806,0.73607665,0.10797768
963,0.17180933,0.00030995032,0.7205328,0.107348
964,0.19731288,0.00035673,0.68568957,0.116640836
965,0.15929535,0.00030074193,0.73652524,0.10387864
966,0.1056698,0.00021767117,0.8029432,0.091169305
967,0.09681323,0.00018043736,0.80363894,0.09936744
968,0.09925868,0.00021051202,0.77884185,0.12168889
969,0.11111447,0.00021457805,0.76110566,0.12756532
970,0.14491461,0.00026948206,0.7132891,0.14152674
971,0.17675602,0.00023929606,0.69776547,0.12523913
972,0.16416146,0.0002325121,0.70768565,0.12792037
973,0.13498372,0.0001806949,0.7613256,0.10350995
974,0.12970883,0.0001367221,0.76227045,0.10788403
975,0.110873014,0.00014256146,0.7846339,0.10435053
976,0.098080516,0.00018213679,0.7972327,0.10450476
977,0.11982936,0.00019840592,0.7624257,0.11754659
978,0.10526302,0.0001510178,0.7882005,0.106385484
979,0.109093815,0.00020642937,0.769055,0.121644825
980,0.12301057,0.0001930572,0.76247007,0.11432634
981,0.101085536,0.00019103332,0.7837817,0.114941716
982,0.09431793,0.00022152266,0.7912114,0.11424914
983,0.09882605,0.00028982208,0.76101434,0.13986978
984,0.08846331,0.00029798778,0.7740915,0.13714716
985,0.11388939,0.00038591784,0.74425906,0.14146557
986,0.10681065,0.00026889564,0.71856153,0.17435889
987,0.121440254,0.00034200883,0.6906315,0.18758626
988,0.105567515,0.00037778527,0.7198575,0.17419729
989,0.10265122,0.0003841992,0.72984517,0.16711947
990,0.10156382,0.0004336379,0.71846575,0.17953674
991,0.09059234,0.00032333497,0.7343167,0.17476758
992,0.09928575,0.0003764434,0.7162849,0.18405293
993,0.1038819,0.00039257127,0.72105235,0.17467308
994,0.10374323,0.00043609395,0.7046572,0.19116345
995,0.11594856,0.0004988049,0.71031827,0.17323442
996,0.085805,0.00037402305,0.74971735,0.16410363
997,0.07483269,0.00019921488,0.78956014,0.13540795
998,0.08740856,0.00024826362,0.760853,0.15149015
999,0.08575011,0.00031747535,0.7573258,0.1566066
1000,0.081986144,0.0002297816,0.7528765,0.16490756
1001,0.074583925,0.00022395687,0.74015534,0.18503676
1002,0.08163173,0.00032540373,0.7243014,0.19374155
1003,0.08311527,0.00031868243,0.7502127,0.16635334
1004,0.114630304,0.0003569437,0.6905678,0.19444495
1005,0.11725436,0.00043304806,0.6964321,0.18588044
1006,0.12224652,0.00051447796,0.6863898,0.19084917
1007,0.1109245,0.00035557227,0.69915116,0.18956874
1008,0.11876389,0.00050363905,0.6752473,0.20548522
1009,0.12636521,0.0006995104,0.66006774,0.2128676
1010,0.15080036,0.000852868,0.63208437,0.21626237
1011,0.16778983,0.0010830694,0.60187775,0.22924937
1012,0.1825643,0.0013196004,0.58428144,0.23183465
1013,0.21264109,0.0013782427,0.5236863,0.26229432
1014,0.19971956,0.0013972773,0.5111041,0.28777906
1015,0.22468384,0.001723495,0.48829517,0.28529754
1016,0.23796019,0.00223985,0.4718337,0.28796625
1017,0.23035267,0.0029099784,0.46425733,0.30247998
1018,0.2266886,0.0032683492,0.45483726,0.31520587
1019,0.24878189,0.0038317314,0.43326762,0.31411877
1020,0.28834698,0.0037487654,0.37114143,0.33676276
1021,0.27296945,0.0043005426,0.37991974,0.34281024
1022,0.27098265,0.0048257923,0.35192555,0.37226593
1023,0.29755095,0.0039401525,0.2957115,0.40279743
1024,0.33836228,0.004313217,0.2788436,0.37848088
1025,0.34906805,0.0051505896,0.267577,0.37820446
1026,0.3496931,0.0057954737,0.26426563,0.38024577
1027,0.3576076,0.006174159,0.2457177,0.3905005
1028,0.37760496,0.006536386,0.22966552,0.38619316
1029,0.4081772,0.0073692026,0.21781869,0.36663485
1030,0.36245227,0.006582307,0.23044431,0.40052113
1031,0.36339292,0.007703479,0.23232377,0.3965798
1032,0.3502048,0.0092772385,0.23039007,0.41012797
1033,0.37721652,0.010464116,0.22375865,0.38856077
1034,0.4465967,0.009552638,0.18184835,0.3620024
1035,0.42118955,0.010236517,0.1778841,0.39068982
1036,0.44309896,0.0100797145,0.16407645,0.38274482
1037,0.37702817,0.010645238,0.18056343,0.43176314
1038,0.42767376,0.011373222,0.1637609,0.39719212
1039,0.4332727,0.012520749,0.15883808,0.39536843
1040,0.447695,0.01371461,0.15152198,0.38706848
1041,0.5084813,0.012715434,0.13978398,0.3390193
1042,0.4958435,0.014996709,0.14488491,0.34427488
1043,0.5077087,0.014430669,0.13243003,0.34543058
1044,0.50910795,0.01436513,0.12591809,0.35060886
1045,0.50307745,0.01629613,0.12668464,0.35394177
1046,0.48986742,0.015450084,0.11590328,0.37877926
1047,0.45988178,0.014648785,0.12177059,0.4036988
1048,0.491475,0.013043258,0.10847933,0.38700247
1049,0.49402252,0.013836327,0.1044651,0.38767606
1050,0.4864951,0.016221581,0.110973135,0.38631016
1051,0.49129242,0.016331635,0.11058762,0.38178834
1052,0.4721632,0.019819072,0.11932808,0.38868976
1053,0.45024914,0.02165743,0.11667802,0.4114155
1054,0.42511833,0.017650323,0.11076827,0.4464631
1055,0.37921965,0.015732296,0.121023566,0.48402455
1056,0.36877444,0.018386273,0.12774694,0.4850923
1057,0.35640618,0.018445615,0.12234334,0.50280493
1058,0.3734139,0.019680314,0.11591225,0.49099353
1059,0.38870937,0.01881104,0.11375763,0.47872204
1060,0.37889466,0.01903616,0.11659285,0.4854763
1061,0.37412825,0.019739674,0.113802284,0.49232984
1062,0.30688784,0.024609443,0.12825131,0.5402514
1063,0.30577317,0.026891066,0.1336,0.53373575
1064,0.265589,0.023758227,0.14505802,0.5655948
1065,0.27033353,0.020773882,0.12888408,0.5800085
1066,0.27564722,0.023157762,0.1295868,0.57160825
1067,0.27463457,0.024249712,0.124152035,0.5769637
1068,0.24023394,0.026283251,0.13075133,0.6027315
1069,0.24127738,0.030953048,0.13758484,0.59018475
1070,0.21758495,0.034544736,0.14589693,0.6019734
1071,0.16876629,0.036890905,0.15074216,0.6436006
1072,0.14543925,0.03167139,0.15828204,0.66460735
1073,0.14959508,0.029690055,0.14316125,0.6775536
1074,0.14190021,0.027875,0.12895297,0.70127183
1075,0.13593546,0.032133795,0.13606891,0.6958619
1076,0.13076666,0.031989124,0.13961905,0.6976251
1077,0.12276765,0.029807072,0.138348,0.70907724
1078,0.09494226,0.034802154,0.14437784,0.7258777
1079,0.08448561,0.03402184,0.14678933,0.73470324
1080,0.06798132,0.035843186,0.15995796,0.73621756
1081,0.06711906,0.036435433,0.15654856,0.7398969
1082,0.05688529,0.031669315,0.15015003,0.7612954
1083,0.061952595,0.03503251,0.14923751,0.7537773
1084,0.061612934,0.037100043,0.15042363,0.7508634
1085,0.069302626,0.04024746,0.15216827,0.7382816
1086,0.07193861,0.04450511,0.15871936,0.724837
1087,0.053512156,0.045738593,0.15711944,0.7436298
1088,0.04071387,0.035215408,0.15754913,0.76652163
1089,0.036793776,0.03459873,0.15067743,0.7779301
1090,0.040442616,0.03810123,0.15108185,0.7703743
1091,0.043096792,0.042952668,0.15310253,0.760848
1092,0.04453649,0.04215995,0.14861073,0.76469284
1093,0.04788575,0.04525123,0.15332316,0.75353986
1094,0.039900213,0.05188587,0.15890917,0.7493047
1095,0.04431612,0.055169847,0.16531079,0.7352033
1096,0.03646162,0.042843953,0.15264297,0.76805145
1097,0.04227944,0.045408178,0.15951696,0.75279534
1098,0.039590664,0.0490315,0.15706627,0.7543116
1099,0.03466118,0.042927742,0.15629604,0.766115
1100,0.03728335,0.052169893,0.16841595,0.7421308
1101,0.037611097,0.05811767,0.174825,0.72944623
1102,0.036817223,0.060702253,0.17520954,0.72727096
1103,0.038246736,0.057229668,0.16782837,0.73669523
1104,0.03428782,0.07132959,0.17911285,0.7152697
1105,0.028812733,0.0714607,0.17440571,0.7253209
1106,0.030301536,0.06507523,0.18023197,0.7243913
1107,0.030316986,0.07004585,0.18274003,0.71689713
1108,0.025577858,0.066409074,0.19239065,0.7156225
1109,0.028060492,0.07555401,0.19443275,0.7019527
1110,0.030804802,0.07200745,0.18343167,0.7137561
1111,0.031807322,0.07851668,0.17967302,0.710003
1112,0.03282468,0.07272583,0.167699,0.7267505
1113,0.032033857,0.07914666,0.17206709,0.71675235
1114,0.029116021,0.070396915,0.17398357,0.7265035
1115,0.026581807,0.073484436,0.17894296,0.7209908
